
Index;Column 2 (V);Column 3 (V);Column 4 (V);Column 5 (V);Column 6 (V/s);Column 7 (V);Time (s);Potential applied (V);WE(1).Current (A);WE(1).Potential (V);Scan;Column 13 (RPM);ω (rad/s)
1;0;0.01;-1;-0.01;0.01;-0.00244;6977.54848938338;-0.0146484375;3.2159423828125E-06;-0.0143951416015625;3;500;52.3598775598299
2;;;;;;;6977.79263038277;-0.01708984375;2.91717529296875E-06;-0.016839599609375;3;;
3;;;;;;;6978.03677138215;-0.01953125;2.68951416015625E-06;-0.01927490234375;3;;
4;;;;;;;6978.28091238153;-0.02197265625;2.44171142578125E-06;-0.0217010498046875;3;;
5;;;;;;;6978.52505338092;-0.0244140625;2.20123291015625E-06;-0.0241485595703125;3;;
6;;;;;;;6978.7691943803;-0.02685546875;1.98974609375E-06;-0.0265655517578125;3;;
7;;;;;;;6979.01333537969;-0.029296875;1.8133544921875E-06;-0.02899169921875;3;;
8;;;;;;;6979.25747637907;-0.03173828125;1.60552978515625E-06;-0.031439208984375;3;;
9;;;;;;;6979.50161737845;-0.0341796875;1.44744873046875E-06;-0.0338775634765625;3;;
10;;;;;;;6979.74575837784;-0.03662109375;1.27655029296875E-06;-0.0363067626953125;3;;
11;;;;;;;6979.98989937722;-0.0390625;1.09466552734375E-06;-0.0387298583984375;3;;
12;;;;;;;6980.2340403766;-0.04150390625;9.5733642578125E-07;-0.0411651611328125;3;;
13;;;;;;;6980.47818137599;-0.0439453125;8.0230712890625E-07;-0.043609619140625;3;;
14;;;;;;;6980.72232237537;-0.04638671875;6.6253662109375E-07;-0.046051025390625;3;;
15;;;;;;;6980.96646337475;-0.048828125;5.322265625E-07;-0.0485137939453125;3;;
16;;;;;;;6981.21060437414;-0.05126953125;4.0496826171875E-07;-0.050994873046875;3;;
17;;;;;;;6981.45474537352;-0.0537109375;2.508544921875E-07;-0.053619384765625;3;;
18;;;;;;;6981.6988863729;-0.05615234375;1.3031005859375E-07;-0.05596923828125;3;;
19;;;;;;;6981.94302737229;-0.05859375;3.692626953125E-08;-0.058197021484375;3;;
20;;;;;;;6982.18716837167;-0.06103515625;-8.1787109375E-08;-0.060760498046875;3;;
21;;;;;;;6982.43130937106;-0.0634765625;-1.9805908203125E-07;-0.06304931640625;3;;
22;;;;;;;6982.67545037044;-0.06591796875;-3.265380859375E-07;-0.0655517578125;3;;
23;;;;;;;6982.91959136982;-0.068359375;-4.6112060546875E-07;-0.06793212890625;3;;
24;;;;;;;6983.16373236921;-0.07080078125;-5.7098388671875E-07;-0.070404052734375;3;;
25;;;;;;;6983.40787336859;-0.0732421875;-6.9488525390625E-07;-0.072998046875;3;;
26;;;;;;;6983.65201436797;-0.07568359375;-8.0841064453125E-07;-0.0753173828125;3;;
27;;;;;;;6983.89615536736;-0.078125;-9.5672607421875E-07;-0.077789306640625;3;;
28;;;;;;;6984.14029636674;-0.08056640625;-1.09161376953125E-06;-0.0802001953125;3;;
29;;;;;;;6984.38443736612;-0.0830078125;-1.231689453125E-06;-0.08258056640625;3;;
30;;;;;;;6984.62857836551;-0.08544921875;-1.3726806640625E-06;-0.084991455078125;3;;
31;;;;;;;6984.87271936489;-0.087890625;-1.51580810546875E-06;-0.08746337890625;3;;
32;;;;;;;6985.11686036428;-0.09033203125;-1.67388916015625E-06;-0.08978271484375;3;;
33;;;;;;;6985.36100136366;-0.0927734375;-1.832275390625E-06;-0.092254638671875;3;;
34;;;;;;;6985.60514236304;-0.09521484375;-2.00775146484375E-06;-0.094757080078125;3;;
35;;;;;;;6985.84928336243;-0.09765625;-2.2076416015625E-06;-0.097015380859375;3;;
36;;;;;;;6986.09342436181;-0.10009765625;-2.398681640625E-06;-0.099517822265625;3;;
37;;;;;;;6986.33756536119;-0.1025390625;-2.59765625E-06;-0.101837158203125;3;;
38;;;;;;;6986.58170636058;-0.10498046875;-2.802734375E-06;-0.1043701171875;3;;
39;;;;;;;6986.82584735996;-0.107421875;-3.040771484375E-06;-0.1068115234375;3;;
40;;;;;;;6987.06998835934;-0.10986328125;-3.24798583984375E-06;-0.109375;3;;
41;;;;;;;6987.31412935873;-0.1123046875;-3.52874755859375E-06;-0.1119384765625;3;;
42;;;;;;;6987.55827035811;-0.11474609375;-3.7994384765625E-06;-0.114349365234375;3;;
43;;;;;;;6987.80241135749;-0.1171875;-4.0679931640625E-06;-0.116790771484375;3;;
44;;;;;;;6988.04655235688;-0.11962890625;-4.3670654296875E-06;-0.119232177734375;3;;
45;;;;;;;6988.29069335626;-0.1220703125;-4.69970703125E-06;-0.1217041015625;3;;
46;;;;;;;6988.53483435565;-0.12451171875;-5.0384521484375E-06;-0.1241455078125;3;;
47;;;;;;;6988.77897535503;-0.126953125;-5.3924560546875E-06;-0.126495361328125;3;;
48;;;;;;;6989.02311635441;-0.12939453125;-5.7647705078125E-06;-0.129058837890625;3;;
49;;;;;;;6989.2672573538;-0.1318359375;-6.21337890625E-06;-0.13140869140625;3;;
50;;;;;;;6989.51139835318;-0.13427734375;-6.634521484375E-06;-0.133880615234375;3;;
51;;;;;;;6989.75553935256;-0.13671875;-7.1136474609375E-06;-0.13623046875;3;;
52;;;;;;;6989.99968035195;-0.13916015625;-7.5836181640625E-06;-0.138641357421875;3;;
53;;;;;;;6990.24382135133;-0.1416015625;-8.1298828125E-06;-0.141143798828125;3;;
54;;;;;;;6990.48796235072;-0.14404296875;-8.7066650390625E-06;-0.143585205078125;3;;
55;;;;;;;6990.7321033501;-0.146484375;-9.271240234375E-06;-0.146026611328125;3;;
56;;;;;;;6990.97624434948;-0.14892578125;-9.8907470703125E-06;-0.1484375;3;;
57;;;;;;;6991.22038534887;-0.1513671875;-1.06048583984375E-05;-0.150909423828125;3;;
58;;;;;;;6991.46452634825;-0.15380859375;-1.13037109375E-05;-0.1533203125;3;;
59;;;;;;;6991.70866734763;-0.15625;-1.20849609375E-05;-0.155731201171875;3;;
60;;;;;;;6991.95280834702;-0.15869140625;-1.2835693359375E-05;-0.158172607421875;3;;
61;;;;;;;6992.1969493464;-0.1611328125;-1.36871337890625E-05;-0.1605224609375;3;;
62;;;;;;;6992.44109034578;-0.16357421875;-1.46087646484375E-05;-0.162994384765625;3;;
63;;;;;;;6992.68523134517;-0.166015625;-1.55487060546875E-05;-0.1654052734375;3;;
64;;;;;;;6992.92937234455;-0.16845703125;-1.656494140625E-05;-0.167816162109375;3;;
65;;;;;;;6993.17351334393;-0.1708984375;-1.761474609375E-05;-0.170318603515625;3;;
66;;;;;;;6993.41765434332;-0.17333984375;-1.876220703125E-05;-0.1727294921875;3;;
67;;;;;;;6993.6617953427;-0.17578125;-1.9952392578125E-05;-0.175140380859375;3;;
68;;;;;;;6993.90593634208;-0.17822265625;-2.12158203125E-05;-0.17755126953125;3;;
69;;;;;;;6994.15007734147;-0.1806640625;-2.255859375E-05;-0.179962158203125;3;;
70;;;;;;;6994.39421834085;-0.18310546875;-2.3992919921875E-05;-0.182342529296875;3;;
71;;;;;;;6994.63835934024;-0.185546875;-2.54974365234375E-05;-0.18475341796875;3;;
72;;;;;;;6994.88250033962;-0.18798828125;-2.71087646484375E-05;-0.187164306640625;3;;
73;;;;;;;6995.126641339;-0.1904296875;-2.87933349609375E-05;-0.1895751953125;3;;
74;;;;;;;6995.37078233839;-0.19287109375;-3.05572509765625E-05;-0.1920166015625;3;;
75;;;;;;;6995.61492333777;-0.1953125;-3.2470703125E-05;-0.194793701171875;3;;
76;;;;;;;6995.85906433715;-0.19775390625;-3.44482421875E-05;-0.197235107421875;3;;
77;;;;;;;6996.10320533654;-0.2001953125;-3.65875244140625E-05;-0.19964599609375;3;;
78;;;;;;;6996.34734633592;-0.20263671875;-3.88397216796875E-05;-0.202056884765625;3;;
79;;;;;;;6996.5914873353;-0.205078125;-4.12322998046875E-05;-0.20452880859375;3;;
80;;;;;;;6996.83562833469;-0.20751953125;-4.376220703125E-05;-0.20697021484375;3;;
81;;;;;;;6997.07976933407;-0.2099609375;-4.64630126953125E-05;-0.209381103515625;3;;
82;;;;;;;6997.32391033346;-0.21240234375;-4.925537109375E-05;-0.21185302734375;3;;
83;;;;;;;6997.56805133284;-0.21484375;-5.2276611328125E-05;-0.21429443359375;3;;
84;;;;;;;6997.81219233222;-0.21728515625;-5.5450439453125E-05;-0.216705322265625;3;;
85;;;;;;;6998.05633333161;-0.2197265625;-5.8807373046875E-05;-0.219146728515625;3;;
86;;;;;;;6998.30047433099;-0.22216796875;-6.231689453125E-05;-0.221527099609375;3;;
87;;;;;;;6998.54461533037;-0.224609375;-6.6131591796875E-05;-0.2239990234375;3;;
88;;;;;;;6998.78875632976;-0.22705078125;-7.012939453125E-05;-0.226409912109375;3;;
89;;;;;;;6999.03289732914;-0.2294921875;-7.4310302734375E-05;-0.228912353515625;3;;
90;;;;;;;6999.27703832852;-0.23193359375;-7.87353515625E-05;-0.231353759765625;3;;
91;;;;;;;6999.52117932791;-0.234375;-8.349609375E-05;-0.233734130859375;3;;
92;;;;;;;6999.76532032729;-0.23681640625;-8.8348388671875E-05;-0.2362060546875;3;;
93;;;;;;;7000.00946132667;-0.2392578125;-9.3597412109375E-05;-0.238616943359375;3;;
94;;;;;;;7000.25360232606;-0.24169921875;-9.906005859375E-05;-0.241058349609375;3;;
95;;;;;;;7000.49774332544;-0.244140625;-0.00010479736328125;-0.243438720703125;3;;
96;;;;;;;7000.74188432483;-0.24658203125;-0.000110931396484375;-0.245941162109375;3;;
97;;;;;;;7000.98602532421;-0.2490234375;-0.000117340087890625;-0.24835205078125;3;;
98;;;;;;;7001.23016632359;-0.25146484375;-0.000124053955078125;-0.25079345703125;3;;
99;;;;;;;7001.47430732298;-0.25390625;-0.0001312255859375;-0.25323486328125;3;;
100;;;;;;;7001.71844832236;-0.25634765625;-0.000138671875;-0.255615234375;3;;
101;;;;;;;7001.96258932174;-0.2587890625;-0.00014654541015625;-0.258087158203125;3;;
102;;;;;;;7002.20673032113;-0.26123046875;-0.00015478515625;-0.260467529296875;3;;
103;;;;;;;7002.45087132051;-0.263671875;-0.000163421630859375;-0.262847900390625;3;;
104;;;;;;;7002.69501231989;-0.26611328125;-0.00017254638671875;-0.26531982421875;3;;
105;;;;;;;7002.93915331928;-0.2685546875;-0.000182037353515625;-0.2677001953125;3;;
106;;;;;;;7003.18329431866;-0.27099609375;-0.000191925048828125;-0.270172119140625;3;;
107;;;;;;;7003.42743531805;-0.2734375;-0.00020233154296875;-0.27264404296875;3;;
108;;;;;;;7003.67157631743;-0.27587890625;-0.0002130126953125;-0.27496337890625;3;;
109;;;;;;;7003.91571731681;-0.2783203125;-0.0002242431640625;-0.277435302734375;3;;
110;;;;;;;7004.1598583162;-0.28076171875;-0.00023590087890625;-0.27984619140625;3;;
111;;;;;;;7004.40399931558;-0.283203125;-0.000248016357421875;-0.282196044921875;3;;
112;;;;;;;7004.64814031496;-0.28564453125;-0.0002606201171875;-0.28466796875;3;;
113;;;;;;;7004.89228131435;-0.2880859375;-0.00027362060546875;-0.28704833984375;3;;
114;;;;;;;7005.13642231373;-0.29052734375;-0.000287109375;-0.289459228515625;3;;
115;;;;;;;7005.38056331311;-0.29296875;-0.00030096435546875;-0.29193115234375;3;;
116;;;;;;;7005.6247043125;-0.29541015625;-0.00031524658203125;-0.294769287109375;3;;
117;;;;;;;7005.86884531188;-0.2978515625;-0.000329925537109375;-0.297149658203125;3;;
118;;;;;;;7006.11298631127;-0.30029296875;-0.00034490966796875;-0.299591064453125;3;;
119;;;;;;;7006.35712731065;-0.302734375;-0.000360260009765625;-0.302001953125;3;;
120;;;;;;;7006.60126831003;-0.30517578125;-0.000375885009765625;-0.304473876953125;3;;
121;;;;;;;7006.84540930942;-0.3076171875;-0.000391754150390625;-0.30694580078125;3;;
122;;;;;;;7007.0895503088;-0.31005859375;-0.0004078369140625;-0.30938720703125;3;;
123;;;;;;;7007.33369130818;-0.3125;-0.0004241943359375;-0.311798095703125;3;;
124;;;;;;;7007.57783230757;-0.31494140625;-0.000440765380859375;-0.314208984375;3;;
125;;;;;;;7007.82197330695;-0.3173828125;-0.000457305908203125;-0.316619873046875;3;;
126;;;;;;;7008.06611430633;-0.31982421875;-0.000473907470703125;-0.319091796875;3;;
127;;;;;;;7008.31025530572;-0.322265625;-0.0004906005859375;-0.321502685546875;3;;
128;;;;;;;7008.5543963051;-0.32470703125;-0.00050689697265625;-0.323944091796875;3;;
129;;;;;;;7008.79853730448;-0.3271484375;-0.000523681640625;-0.326416015625;3;;
130;;;;;;;7009.04267830387;-0.32958984375;-0.00053985595703125;-0.328826904296875;3;;
131;;;;;;;7009.28681930325;-0.33203125;-0.00055633544921875;-0.331298828125;3;;
132;;;;;;;7009.53096030264;-0.33447265625;-0.00057220458984375;-0.333709716796875;3;;
133;;;;;;;7009.77510130202;-0.3369140625;-0.0005877685546875;-0.336212158203125;3;;
134;;;;;;;7010.0192423014;-0.33935546875;-0.00060333251953125;-0.338531494140625;3;;
135;;;;;;;7010.26338330079;-0.341796875;-0.00061798095703125;-0.340972900390625;3;;
136;;;;;;;7010.50752430017;-0.34423828125;-0.00063262939453125;-0.34344482421875;3;;
137;;;;;;;7010.75166529955;-0.3466796875;-0.0006463623046875;-0.345855712890625;3;;
138;;;;;;;7010.99580629894;-0.34912109375;-0.0006597900390625;-0.348297119140625;3;;
139;;;;;;;7011.23994729832;-0.3515625;-0.000672607421875;-0.350799560546875;3;;
140;;;;;;;7011.4840882977;-0.35400390625;-0.0006842041015625;-0.353240966796875;3;;
141;;;;;;;7011.72822929709;-0.3564453125;-0.00069549560546875;-0.355621337890625;3;;
142;;;;;;;7011.97237029647;-0.35888671875;-0.00070556640625;-0.35809326171875;3;;
143;;;;;;;7012.21651129586;-0.361328125;-0.00071502685546875;-0.3604736328125;3;;
144;;;;;;;7012.46065229524;-0.36376953125;-0.0007232666015625;-0.3629150390625;3;;
145;;;;;;;7012.70479329462;-0.3662109375;-0.0007305908203125;-0.36529541015625;3;;
146;;;;;;;7012.94893429401;-0.36865234375;-0.00073699951171875;-0.367828369140625;3;;
147;;;;;;;7013.19307529339;-0.37109375;-0.0007421875;-0.370269775390625;3;;
148;;;;;;;7013.43721629277;-0.37353515625;-0.00074615478515625;-0.3726806640625;3;;
149;;;;;;;7013.68135729216;-0.3759765625;-0.0007489013671875;-0.3751220703125;3;;
150;;;;;;;7013.92549829154;-0.37841796875;-0.00075042724609375;-0.377532958984375;3;;
151;;;;;;;7014.16963929092;-0.380859375;-0.00075103759765625;-0.3800048828125;3;;
152;;;;;;;7014.41378029031;-0.38330078125;-0.00075042724609375;-0.382476806640625;3;;
153;;;;;;;7014.65792128969;-0.3857421875;-0.00074859619140625;-0.3848876953125;3;;
154;;;;;;;7014.90206228907;-0.38818359375;-0.00074554443359375;-0.387359619140625;3;;
155;;;;;;;7015.14620328846;-0.390625;-0.00074188232421875;-0.389739990234375;3;;
156;;;;;;;7015.39034428784;-0.39306640625;-0.0007373046875;-0.392120361328125;3;;
157;;;;;;;7015.63448528723;-0.3955078125;-0.00073211669921875;-0.394622802734375;3;;
158;;;;;;;7015.87862628661;-0.39794921875;-0.00072662353515625;-0.3970947265625;3;;
159;;;;;;;7016.12276728599;-0.400390625;-0.0007208251953125;-0.399505615234375;3;;
160;;;;;;;7016.36690828538;-0.40283203125;-0.00071502685546875;-0.40191650390625;3;;
161;;;;;;;7016.61104928476;-0.4052734375;-0.00070953369140625;-0.40435791015625;3;;
162;;;;;;;7016.85519028414;-0.40771484375;-0.000704345703125;-0.40679931640625;3;;
163;;;;;;;7017.09933128353;-0.41015625;-0.00069976806640625;-0.409210205078125;3;;
164;;;;;;;7017.34347228291;-0.41259765625;-0.00069549560546875;-0.411651611328125;3;;
165;;;;;;;7017.58761328229;-0.4150390625;-0.00069183349609375;-0.41412353515625;3;;
166;;;;;;;7017.83175428168;-0.41748046875;-0.0006884765625;-0.416595458984375;3;;
167;;;;;;;7018.07589528106;-0.419921875;-0.00068572998046875;-0.41900634765625;3;;
168;;;;;;;7018.32003628045;-0.42236328125;-0.00068328857421875;-0.421478271484375;3;;
169;;;;;;;7018.56417727983;-0.4248046875;-0.00068145751953125;-0.4239501953125;3;;
170;;;;;;;7018.80831827921;-0.42724609375;-0.000679931640625;-0.42633056640625;3;;
171;;;;;;;7019.0524592786;-0.4296875;-0.00067901611328125;-0.42877197265625;3;;
172;;;;;;;7019.29660027798;-0.43212890625;-0.0006781005859375;-0.431182861328125;3;;
173;;;;;;;7019.54074127736;-0.4345703125;-0.00067779541015625;-0.43359375;3;;
174;;;;;;;7019.78488227675;-0.43701171875;-0.000677490234375;-0.43603515625;3;;
175;;;;;;;7020.02902327613;-0.439453125;-0.000677490234375;-0.438507080078125;3;;
176;;;;;;;7020.27316427551;-0.44189453125;-0.00067779541015625;-0.44091796875;3;;
177;;;;;;;7020.5173052749;-0.4443359375;-0.0006781005859375;-0.443389892578125;3;;
178;;;;;;;7020.76144627428;-0.44677734375;-0.00067840576171875;-0.445770263671875;3;;
179;;;;;;;7021.00558727366;-0.44921875;-0.00067901611328125;-0.4482421875;3;;
180;;;;;;;7021.24972827305;-0.45166015625;-0.00067962646484375;-0.45068359375;3;;
181;;;;;;;7021.49386927243;-0.4541015625;-0.00068023681640625;-0.453155517578125;3;;
182;;;;;;;7021.73801027182;-0.45654296875;-0.00068084716796875;-0.45556640625;3;;
183;;;;;;;7021.9821512712;-0.458984375;-0.00068145751953125;-0.45794677734375;3;;
184;;;;;;;7022.22629227058;-0.46142578125;-0.000682373046875;-0.46044921875;3;;
185;;;;;;;7022.47043326997;-0.4638671875;-0.0006829833984375;-0.46282958984375;3;;
186;;;;;;;7022.71457426935;-0.46630859375;-0.00068359375;-0.465362548828125;3;;
187;;;;;;;7022.95871526873;-0.46875;-0.0006842041015625;-0.467742919921875;3;;
188;;;;;;;7023.20285626812;-0.47119140625;-0.000684814453125;-0.470184326171875;3;;
189;;;;;;;7023.4469972675;-0.4736328125;-0.0006854248046875;-0.472625732421875;3;;
190;;;;;;;7023.69113826688;-0.47607421875;-0.00068603515625;-0.475006103515625;3;;
191;;;;;;;7023.93527926627;-0.478515625;-0.0006866455078125;-0.47747802734375;3;;
192;;;;;;;7024.17942026565;-0.48095703125;-0.00068756103515625;-0.479888916015625;3;;
193;;;;;;;7024.42356126504;-0.4833984375;-0.00068817138671875;-0.482391357421875;3;;
194;;;;;;;7024.66770226442;-0.48583984375;-0.00068878173828125;-0.48480224609375;3;;
195;;;;;;;7024.9118432638;-0.48828125;-0.00068939208984375;-0.48724365234375;3;;
196;;;;;;;7025.15598426319;-0.49072265625;-0.0006903076171875;-0.489715576171875;3;;
197;;;;;;;7025.40012526257;-0.4931640625;-0.00069091796875;-0.49212646484375;3;;
198;;;;;;;7025.64426626195;-0.49560546875;-0.00069183349609375;-0.494537353515625;3;;
199;;;;;;;7025.88840726134;-0.498046875;-0.0006927490234375;-0.496978759765625;3;;
200;;;;;;;7026.13254826072;-0.50048828125;-0.000693359375;-0.49945068359375;3;;
201;;;;;;;7026.3766892601;-0.5029296875;-0.00069427490234375;-0.501922607421875;3;;
202;;;;;;;7026.62083025949;-0.50537109375;-0.0006951904296875;-0.504364013671875;3;;
203;;;;;;;7026.86497125887;-0.5078125;-0.00069580078125;-0.506744384765625;3;;
204;;;;;;;7027.10911225825;-0.51025390625;-0.0006964111328125;-0.5091552734375;3;;
205;;;;;;;7027.35325325764;-0.5126953125;-0.000697021484375;-0.511566162109375;3;;
206;;;;;;;7027.59739425702;-0.51513671875;-0.0006976318359375;-0.514068603515625;3;;
207;;;;;;;7027.84153525641;-0.517578125;-0.00069854736328125;-0.5164794921875;3;;
208;;;;;;;7028.08567625579;-0.52001953125;-0.00069976806640625;-0.518890380859375;3;;
209;;;;;;;7028.32981725517;-0.5224609375;-0.00070068359375;-0.521392822265625;3;;
210;;;;;;;7028.57395825456;-0.52490234375;-0.00070159912109375;-0.52374267578125;3;;
211;;;;;;;7028.81809925394;-0.52734375;-0.00070220947265625;-0.5262451171875;3;;
212;;;;;;;7029.06224025332;-0.52978515625;-0.00070281982421875;-0.528717041015625;3;;
213;;;;;;;7029.30638125271;-0.5322265625;-0.0007037353515625;-0.531036376953125;3;;
214;;;;;;;7029.55052225209;-0.53466796875;-0.000704345703125;-0.53350830078125;3;;
215;;;;;;;7029.79466325148;-0.537109375;-0.00070526123046875;-0.5360107421875;3;;
216;;;;;;;7030.03880425086;-0.53955078125;-0.00070587158203125;-0.5384521484375;3;;
217;;;;;;;7030.28294525024;-0.5419921875;-0.00070648193359375;-0.540863037109375;3;;
218;;;;;;;7030.52708624963;-0.54443359375;-0.0007073974609375;-0.543304443359375;3;;
219;;;;;;;7030.77122724901;-0.546875;-0.0007080078125;-0.545745849609375;3;;
220;;;;;;;7031.01536824839;-0.54931640625;-0.0007086181640625;-0.548187255859375;3;;
221;;;;;;;7031.25950924778;-0.5517578125;-0.000709228515625;-0.550628662109375;3;;
222;;;;;;;7031.50365024716;-0.55419921875;-0.00070953369140625;-0.553070068359375;3;;
223;;;;;;;7031.74779124654;-0.556640625;-0.00071014404296875;-0.5555419921875;3;;
224;;;;;;;7031.99193224593;-0.55908203125;-0.00071075439453125;-0.55792236328125;3;;
225;;;;;;;7032.23607324531;-0.5615234375;-0.00071136474609375;-0.56036376953125;3;;
226;;;;;;;7032.48021424469;-0.56396484375;-0.000711669921875;-0.56280517578125;3;;
227;;;;;;;7032.72435524408;-0.56640625;-0.000711669921875;-0.565216064453125;3;;
228;;;;;;;7032.96849624346;-0.56884765625;-0.0007122802734375;-0.567718505859375;3;;
229;;;;;;;7033.21263724284;-0.5712890625;-0.00071258544921875;-0.570159912109375;3;;
230;;;;;;;7033.45677824223;-0.57373046875;-0.00071319580078125;-0.57257080078125;3;;
231;;;;;;;7033.70091924161;-0.576171875;-0.00071319580078125;-0.574951171875;3;;
232;;;;;;;7033.945060241;-0.57861328125;-0.0007135009765625;-0.57745361328125;3;;
233;;;;;;;7034.18920124038;-0.5810546875;-0.00071380615234375;-0.57989501953125;3;;
234;;;;;;;7034.43334223976;-0.58349609375;-0.00071441650390625;-0.582305908203125;3;;
235;;;;;;;7034.67748323915;-0.5859375;-0.0007147216796875;-0.58477783203125;3;;
236;;;;;;;7034.92162423853;-0.58837890625;-0.00071533203125;-0.58721923828125;3;;
237;;;;;;;7035.16576523791;-0.5908203125;-0.00071563720703125;-0.589569091796875;3;;
238;;;;;;;7035.4099062373;-0.59326171875;-0.0007159423828125;-0.59197998046875;3;;
239;;;;;;;7035.65404723668;-0.595703125;-0.00071624755859375;-0.594482421875;3;;
240;;;;;;;7035.89818823606;-0.59814453125;-0.000716552734375;-0.596893310546875;3;;
241;;;;;;;7036.14232923545;-0.6005859375;-0.00071685791015625;-0.599365234375;3;;
242;;;;;;;7036.38647023483;-0.60302734375;-0.0007171630859375;-0.601806640625;3;;
243;;;;;;;7036.63061123422;-0.60546875;-0.00071746826171875;-0.604278564453125;3;;
244;;;;;;;7036.8747522336;-0.60791015625;-0.0007177734375;-0.606689453125;3;;
245;;;;;;;7037.11889323298;-0.6103515625;-0.00071807861328125;-0.609130859375;3;;
246;;;;;;;7037.36303423237;-0.61279296875;-0.00071807861328125;-0.611541748046875;3;;
247;;;;;;;7037.60717523175;-0.615234375;-0.0007183837890625;-0.61407470703125;3;;
248;;;;;;;7037.85131623113;-0.61767578125;-0.0007183837890625;-0.616424560546875;3;;
249;;;;;;;7038.09545723052;-0.6201171875;-0.0007183837890625;-0.618896484375;3;;
250;;;;;;;7038.3395982299;-0.62255859375;-0.00071868896484375;-0.62127685546875;3;;
251;;;;;;;7038.58373922928;-0.625;-0.00071868896484375;-0.623748779296875;3;;
252;;;;;;;7038.82788022867;-0.62744140625;-0.00071807861328125;-0.62615966796875;3;;
253;;;;;;;7039.07202122805;-0.6298828125;-0.00071746826171875;-0.628570556640625;3;;
254;;;;;;;7039.31616222743;-0.63232421875;-0.0007177734375;-0.631103515625;3;;
255;;;;;;;7039.56030322682;-0.634765625;-0.00071807861328125;-0.633453369140625;3;;
256;;;;;;;7039.8044442262;-0.63720703125;-0.0007183837890625;-0.635986328125;3;;
257;;;;;;;7040.04858522559;-0.6396484375;-0.00071807861328125;-0.638427734375;3;;
258;;;;;;;7040.29272622497;-0.64208984375;-0.0007171630859375;-0.64080810546875;3;;
259;;;;;;;7040.53686722435;-0.64453125;-0.00071563720703125;-0.643280029296875;3;;
260;;;;;;;7040.78100822374;-0.64697265625;-0.00071533203125;-0.645721435546875;3;;
261;;;;;;;7041.02514922312;-0.6494140625;-0.0007159423828125;-0.648223876953125;3;;
262;;;;;;;7041.2692902225;-0.65185546875;-0.0007159423828125;-0.650604248046875;3;;
263;;;;;;;7041.51343122189;-0.654296875;-0.00071563720703125;-0.653045654296875;3;;
264;;;;;;;7041.75757222127;-0.65673828125;-0.00071502685546875;-0.655487060546875;3;;
265;;;;;;;7042.00171322065;-0.6591796875;-0.0007147216796875;-0.657867431640625;3;;
266;;;;;;;7042.24585422004;-0.66162109375;-0.00071441650390625;-0.660369873046875;3;;
267;;;;;;;7042.48999521942;-0.6640625;-0.000714111328125;-0.662872314453125;3;;
268;;;;;;;7042.73413621881;-0.66650390625;-0.00071380615234375;-0.665252685546875;3;;
269;;;;;;;7042.97827721819;-0.6689453125;-0.0007135009765625;-0.667633056640625;3;;
270;;;;;;;7043.22241821757;-0.67138671875;-0.000712890625;-0.67010498046875;3;;
271;;;;;;;7043.46655921696;-0.673828125;-0.000712890625;-0.672515869140625;3;;
272;;;;;;;7043.71070021634;-0.67626953125;-0.000712890625;-0.675018310546875;3;;
273;;;;;;;7043.95484121572;-0.6787109375;-0.00071258544921875;-0.677459716796875;3;;
274;;;;;;;7044.19898221511;-0.68115234375;-0.0007122802734375;-0.679840087890625;3;;
275;;;;;;;7044.44312321449;-0.68359375;-0.0007122802734375;-0.682373046875;3;;
276;;;;;;;7044.68726421387;-0.68603515625;-0.0007122802734375;-0.684722900390625;3;;
277;;;;;;;7044.93140521326;-0.6884765625;-0.0007122802734375;-0.68719482421875;3;;
278;;;;;;;7045.17554621264;-0.69091796875;-0.00071258544921875;-0.68963623046875;3;;
279;;;;;;;7045.41968721203;-0.693359375;-0.0007122802734375;-0.6920166015625;3;;
280;;;;;;;7045.66382821141;-0.69580078125;-0.000711669921875;-0.694488525390625;3;;
281;;;;;;;7045.90796921079;-0.6982421875;-0.0007110595703125;-0.697052001953125;3;;
282;;;;;;;7046.15211021018;-0.70068359375;-0.00071075439453125;-0.699371337890625;3;;
283;;;;;;;7046.39625120956;-0.703125;-0.00071044921875;-0.701873779296875;3;;
284;;;;;;;7046.64039220894;-0.70556640625;-0.00071044921875;-0.704315185546875;3;;
285;;;;;;;7046.88453320833;-0.7080078125;-0.00071014404296875;-0.70672607421875;3;;
286;;;;;;;7047.12867420771;-0.71044921875;-0.00071014404296875;-0.70916748046875;3;;
287;;;;;;;7047.37281520709;-0.712890625;-0.00071014404296875;-0.711639404296875;3;;
288;;;;;;;7047.61695620648;-0.71533203125;-0.0007098388671875;-0.714111328125;3;;
289;;;;;;;7047.86109720586;-0.7177734375;-0.00070953369140625;-0.7164306640625;3;;
290;;;;;;;7048.10523820524;-0.72021484375;-0.00070953369140625;-0.718841552734375;3;;
291;;;;;;;7048.34937920463;-0.72265625;-0.00070953369140625;-0.721343994140625;3;;
292;;;;;;;7048.59352020401;-0.72509765625;-0.00070953369140625;-0.72381591796875;3;;
293;;;;;;;7048.8376612034;-0.7275390625;-0.000709228515625;-0.72625732421875;3;;
294;;;;;;;7049.08180220278;-0.72998046875;-0.00070953369140625;-0.728729248046875;3;;
295;;;;;;;7049.32594320216;-0.732421875;-0.00070953369140625;-0.731170654296875;3;;
296;;;;;;;7049.57008420155;-0.73486328125;-0.0007098388671875;-0.733612060546875;3;;
297;;;;;;;7049.81422520093;-0.7373046875;-0.00071014404296875;-0.73602294921875;3;;
298;;;;;;;7050.05836620031;-0.73974609375;-0.00071044921875;-0.7384033203125;3;;
299;;;;;;;7050.3025071997;-0.7421875;-0.00071044921875;-0.74090576171875;3;;
300;;;;;;;7050.54664819908;-0.74462890625;-0.00071014404296875;-0.74334716796875;3;;
301;;;;;;;7050.79078919846;-0.7470703125;-0.00071014404296875;-0.745849609375;3;;
302;;;;;;;7051.03493019785;-0.74951171875;-0.00071014404296875;-0.748199462890625;3;;
303;;;;;;;7051.27907119723;-0.751953125;-0.00071014404296875;-0.75164794921875;3;;
304;;;;;;;7051.52321219662;-0.75439453125;-0.00071044921875;-0.7537841796875;3;;
305;;;;;;;7051.767353196;-0.7568359375;-0.00071044921875;-0.7562255859375;3;;
306;;;;;;;7052.01149419538;-0.75927734375;-0.0007110595703125;-0.7586669921875;3;;
307;;;;;;;7052.25563519477;-0.76171875;-0.000711669921875;-0.76080322265625;3;;
308;;;;;;;7052.49977619415;-0.76416015625;-0.000711669921875;-0.76385498046875;3;;
309;;;;;;;7052.74391719353;-0.7666015625;-0.000711669921875;-0.76568603515625;3;;
310;;;;;;;7052.98805819292;-0.76904296875;-0.00071197509765625;-0.76873779296875;3;;
311;;;;;;;7053.2321991923;-0.771484375;-0.00071258544921875;-0.770263671875;3;;
312;;;;;;;7053.47634019168;-0.77392578125;-0.0007135009765625;-0.7733154296875;3;;
313;;;;;;;7053.72048119107;-0.7763671875;-0.00071380615234375;-0.7757568359375;3;;
314;;;;;;;7053.96462219045;-0.77880859375;-0.000714111328125;-0.77789306640625;3;;
315;;;;;;;7054.20876318983;-0.78125;-0.00071441650390625;-0.78094482421875;3;;
316;;;;;;;7054.45290418922;-0.78369140625;-0.0007147216796875;-0.78277587890625;3;;
317;;;;;;;7054.6970451886;-0.7861328125;-0.0007147216796875;-0.78582763671875;3;;
318;;;;;;;7054.94118618799;-0.78857421875;-0.0007147216796875;-0.78826904296875;3;;
319;;;;;;;7055.18532718737;-0.791015625;-0.00071533203125;-0.789794921875;3;;
320;;;;;;;7055.42946818675;-0.79345703125;-0.0007159423828125;-0.7928466796875;3;;
321;;;;;;;7055.67360918614;-0.7958984375;-0.00071624755859375;-0.7952880859375;3;;
322;;;;;;;7055.91775018552;-0.79833984375;-0.000716552734375;-0.79742431640625;3;;
323;;;;;;;7056.1618911849;-0.80078125;-0.00071685791015625;-0.8001708984375;3;;
324;;;;;;;7056.40603218429;-0.80322265625;-0.00071746826171875;-0.8026123046875;3;;
325;;;;;;;7056.65017318367;-0.8056640625;-0.00071807861328125;-0.80474853515625;3;;
326;;;;;;;7056.89431418306;-0.80810546875;-0.00071807861328125;-0.806884765625;3;;
327;;;;;;;7057.13845518244;-0.810546875;-0.0007183837890625;-0.80963134765625;3;;
328;;;;;;;7057.38259618182;-0.81298828125;-0.00071868896484375;-0.8123779296875;3;;
329;;;;;;;7057.62673718121;-0.8154296875;-0.000718994140625;-0.8148193359375;3;;
330;;;;;;;7057.87087818059;-0.81787109375;-0.0007196044921875;-0.8172607421875;3;;
331;;;;;;;7058.11501917997;-0.8203125;-0.00072052001953125;-0.8197021484375;3;;
332;;;;;;;7058.35916017936;-0.82275390625;-0.00072113037109375;-0.8221435546875;3;;
333;;;;;;;7058.60330117874;-0.8251953125;-0.00072174072265625;-0.8245849609375;3;;
334;;;;;;;7058.84744217812;-0.82763671875;-0.0007220458984375;-0.826416015625;3;;
335;;;;;;;7059.09158317751;-0.830078125;-0.00072235107421875;-0.8294677734375;3;;
336;;;;;;;7059.33572417689;-0.83251953125;-0.00072296142578125;-0.8319091796875;3;;
337;;;;;;;7059.57986517627;-0.8349609375;-0.00072357177734375;-0.83465576171875;3;;
338;;;;;;;7059.82400617566;-0.83740234375;-0.000723876953125;-0.8367919921875;3;;
339;;;;;;;7060.06814717504;-0.83984375;-0.0007244873046875;-0.83892822265625;3;;
340;;;;;;;7060.31228817442;-0.84228515625;-0.00072479248046875;-0.84136962890625;3;;
341;;;;;;;7060.55642917381;-0.8447265625;-0.00072509765625;-0.84381103515625;3;;
342;;;;;;;7060.80057017319;-0.84716796875;-0.0007257080078125;-0.84686279296875;3;;
343;;;;;;;7061.04471117258;-0.849609375;-0.00072662353515625;-0.84869384765625;3;;
344;;;;;;;7061.28885217196;-0.85205078125;-0.00072723388671875;-0.85205078125;3;;
345;;;;;;;7061.53299317134;-0.8544921875;-0.0007269287109375;-0.85357666015625;3;;
346;;;;;;;7061.77713417073;-0.85693359375;-0.0007269287109375;-0.85662841796875;3;;
347;;;;;;;7062.02127517011;-0.859375;-0.00072723388671875;-0.85906982421875;3;;
348;;;;;;;7062.26541616949;-0.86181640625;-0.00072784423828125;-0.86181640625;3;;
349;;;;;;;7062.50955716888;-0.8642578125;-0.0007281494140625;-0.863037109375;3;;
350;;;;;;;7062.75369816826;-0.86669921875;-0.000728759765625;-0.86639404296875;3;;
351;;;;;;;7062.99783916765;-0.869140625;-0.000728759765625;-0.8685302734375;3;;
352;;;;;;;7063.24198016703;-0.87158203125;-0.00072845458984375;-0.87127685546875;3;;
353;;;;;;;7063.48612116641;-0.8740234375;-0.0007281494140625;-0.8734130859375;3;;
354;;;;;;;7063.7302621658;-0.87646484375;-0.000728759765625;-0.87554931640625;3;;
355;;;;;;;7063.97440316518;-0.87890625;-0.000728759765625;-0.877685546875;3;;
356;;;;;;;7064.21854416456;-0.88134765625;-0.000728759765625;-0.880126953125;3;;
357;;;;;;;7064.46268516395;-0.8837890625;-0.00072845458984375;-0.88287353515625;3;;
358;;;;;;;7064.70682616333;-0.88623046875;-0.0007281494140625;-0.885009765625;3;;
359;;;;;;;7064.95096716271;-0.888671875;-0.0007275390625;-0.8880615234375;3;;
360;;;;;;;7065.1951081621;-0.89111328125;-0.00072662353515625;-0.89080810546875;3;;
361;;;;;;;7065.43924916148;-0.8935546875;-0.000726318359375;-0.89263916015625;3;;
362;;;;;;;7065.68339016086;-0.89599609375;-0.00072662353515625;-0.8953857421875;3;;
363;;;;;;;7065.92753116025;-0.8984375;-0.0007269287109375;-0.89813232421875;3;;
364;;;;;;;7066.17167215963;-0.90087890625;-0.000726318359375;-0.9002685546875;3;;
365;;;;;;;7066.41581315901;-0.9033203125;-0.0007244873046875;-0.90240478515625;3;;
366;;;;;;;7066.6599541584;-0.90576171875;-0.0007244873046875;-0.90545654296875;3;;
367;;;;;;;7066.90409515778;-0.908203125;-0.00072479248046875;-0.90728759765625;3;;
368;;;;;;;7067.14823615717;-0.91064453125;-0.0007244873046875;-0.90972900390625;3;;
369;;;;;;;7067.39237715655;-0.9130859375;-0.00072418212890625;-0.9124755859375;3;;
370;;;;;;;7067.63651815593;-0.91552734375;-0.00072357177734375;-0.9149169921875;3;;
371;;;;;;;7067.88065915532;-0.91796875;-0.00072296142578125;-0.9173583984375;3;;
372;;;;;;;7068.1248001547;-0.92041015625;-0.00072296142578125;-0.9197998046875;3;;
373;;;;;;;7068.36894115408;-0.9228515625;-0.00072235107421875;-0.9222412109375;3;;
374;;;;;;;7068.61308215347;-0.92529296875;-0.0007220458984375;-0.9246826171875;3;;
375;;;;;;;7068.85722315285;-0.927734375;-0.000721435546875;-0.92681884765625;3;;
376;;;;;;;7069.10136415224;-0.93017578125;-0.0007208251953125;-0.92987060546875;3;;
377;;;;;;;7069.34550515162;-0.9326171875;-0.00072052001953125;-0.93170166015625;3;;
378;;;;;;;7069.589646151;-0.93505859375;-0.00072021484375;-0.93414306640625;3;;
379;;;;;;;7069.83378715039;-0.9375;-0.00071868896484375;-0.93658447265625;3;;
380;;;;;;;7070.07792814977;-0.93994140625;-0.0007177734375;-0.9393310546875;3;;
381;;;;;;;7070.32206914915;-0.9423828125;-0.0007171630859375;-0.94207763671875;3;;
382;;;;;;;7070.56621014854;-0.94482421875;-0.00071685791015625;-0.94329833984375;3;;
383;;;;;;;7070.81035114792;-0.947265625;-0.0007159423828125;-0.94696044921875;3;;
384;;;;;;;7071.0544921473;-0.94970703125;-0.00071533203125;-0.94818115234375;3;;
385;;;;;;;7071.29863314669;-0.9521484375;-0.0007147216796875;-0.950927734375;3;;
386;;;;;;;7071.54277414607;-0.95458984375;-0.00071441650390625;-0.9539794921875;3;;
387;;;;;;;7071.78691514545;-0.95703125;-0.000714111328125;-0.9564208984375;3;;
388;;;;;;;7072.03105614484;-0.95947265625;-0.0007135009765625;-0.9588623046875;3;;
389;;;;;;;7072.27519714422;-0.9619140625;-0.0007135009765625;-0.9613037109375;3;;
390;;;;;;;7072.51933814361;-0.96435546875;-0.0007135009765625;-0.9637451171875;3;;
391;;;;;;;7072.76347914299;-0.966796875;-0.00071319580078125;-0.96649169921875;3;;
392;;;;;;;7073.00762014237;-0.96923828125;-0.00071258544921875;-0.96893310546875;3;;
393;;;;;;;7073.25176114176;-0.9716796875;-0.0007122802734375;-0.9710693359375;3;;
394;;;;;;;7073.49590214114;-0.97412109375;-0.0007122802734375;-0.9735107421875;3;;
395;;;;;;;7073.74004314052;-0.9765625;-0.0007122802734375;-0.97625732421875;3;;
396;;;;;;;7073.98418413991;-0.97900390625;-0.00071197509765625;-0.9783935546875;3;;
397;;;;;;;7074.22832513929;-0.9814453125;-0.00071197509765625;-0.9808349609375;3;;
398;;;;;;;7074.47246613867;-0.98388671875;-0.000711669921875;-0.98297119140625;3;;
399;;;;;;;7074.71660713806;-0.986328125;-0.00071136474609375;-0.9857177734375;3;;
400;;;;;;;7074.96074813744;-0.98876953125;-0.00071197509765625;-0.98846435546875;3;;
401;;;;;;;7075.20488913682;-0.9912109375;-0.00071197509765625;-0.9906005859375;3;;
402;;;;;;;7075.44903013621;-0.99365234375;-0.000711669921875;-0.9930419921875;3;;
403;;;;;;;7075.69317113559;-0.99609375;-0.00071258544921875;-0.9954833984375;3;;
404;;;;;;;7075.93731213498;-0.99853515625;-0.00071319580078125;-0.99822998046875;3;;
405;;;;;;;7076.18145313436;-1.0009765625;-0.00071319580078125;-1.00067138671875;3;;
406;;;;;;;7076.42559413374;-0.99853515625;-0.0007086181640625;-0.9979248046875;3;;
407;;;;;;;7076.66973513313;-0.99609375;-0.00070556640625;-0.99609375;3;;
408;;;;;;;7076.91387613251;-0.99365234375;-0.000703125;-0.99334716796875;3;;
409;;;;;;;7077.15801713189;-0.9912109375;-0.00070068359375;-0.99090576171875;3;;
410;;;;;;;7077.40215813128;-0.98876953125;-0.00069915771484375;-0.98846435546875;3;;
411;;;;;;;7077.64629913066;-0.986328125;-0.0006982421875;-0.9857177734375;3;;
412;;;;;;;7077.89044013004;-0.98388671875;-0.000697021484375;-0.9832763671875;3;;
413;;;;;;;7078.13458112943;-0.9814453125;-0.000694580078125;-0.98114013671875;3;;
414;;;;;;;7078.37872212881;-0.97900390625;-0.0006927490234375;-0.97808837890625;3;;
415;;;;;;;7078.6228631282;-0.9765625;-0.0006915283203125;-0.97625732421875;3;;
416;;;;;;;7078.86700412758;-0.97412109375;-0.0006903076171875;-0.97381591796875;3;;
417;;;;;;;7079.11114512696;-0.9716796875;-0.00068939208984375;-0.97137451171875;3;;
418;;;;;;;7079.35528612635;-0.96923828125;-0.00068878173828125;-0.96771240234375;3;;
419;;;;;;;7079.59942712573;-0.966796875;-0.0006884765625;-0.96588134765625;3;;
420;;;;;;;7079.84356812511;-0.96435546875;-0.00068817138671875;-0.9637451171875;3;;
421;;;;;;;7080.0877091245;-0.9619140625;-0.00068756103515625;-0.9619140625;3;;
422;;;;;;;7080.33185012388;-0.95947265625;-0.00068695068359375;-0.9588623046875;3;;
423;;;;;;;7080.57599112326;-0.95703125;-0.00068572998046875;-0.95611572265625;3;;
424;;;;;;;7080.82013212265;-0.95458984375;-0.00068450927734375;-0.95367431640625;3;;
425;;;;;;;7081.06427312203;-0.9521484375;-0.00068389892578125;-0.950927734375;3;;
426;;;;;;;7081.30841412141;-0.94970703125;-0.00068389892578125;-0.94879150390625;3;;
427;;;;;;;7081.5525551208;-0.947265625;-0.00068267822265625;-0.9466552734375;3;;
428;;;;;;;7081.79669612018;-0.94482421875;-0.0006817626953125;-0.943603515625;3;;
429;;;;;;;7082.04083711957;-0.9423828125;-0.00068206787109375;-0.9417724609375;3;;
430;;;;;;;7082.28497811895;-0.93994140625;-0.00068115234375;-0.93963623046875;3;;
431;;;;;;;7082.52911911833;-0.9375;-0.000679931640625;-0.93658447265625;3;;
432;;;;;;;7082.77326011772;-0.93505859375;-0.00067901611328125;-0.93414306640625;3;;
433;;;;;;;7083.0174011171;-0.9326171875;-0.0006781005859375;-0.9320068359375;3;;
434;;;;;;;7083.26154211648;-0.93017578125;-0.000677490234375;-0.9295654296875;3;;
435;;;;;;;7083.50568311587;-0.927734375;-0.00067657470703125;-0.92681884765625;3;;
436;;;;;;;7083.74982411525;-0.92529296875;-0.00067596435546875;-0.92376708984375;3;;
437;;;;;;;7083.99396511463;-0.9228515625;-0.00067535400390625;-0.9222412109375;3;;
438;;;;;;;7084.23810611402;-0.92041015625;-0.0006744384765625;-0.91949462890625;3;;
439;;;;;;;7084.4822471134;-0.91796875;-0.00067413330078125;-0.91766357421875;3;;
440;;;;;;;7084.72638811279;-0.91552734375;-0.00067352294921875;-0.91461181640625;3;;
441;;;;;;;7084.97052911217;-0.9130859375;-0.00067291259765625;-0.9124755859375;3;;
442;;;;;;;7085.21467011155;-0.91064453125;-0.00067230224609375;-0.9100341796875;3;;
443;;;;;;;7085.45881111094;-0.908203125;-0.00067169189453125;-0.9075927734375;3;;
444;;;;;;;7085.70295211032;-0.90576171875;-0.00067138671875;-0.90545654296875;3;;
445;;;;;;;7085.9470931097;-0.9033203125;-0.0006707763671875;-0.902099609375;3;;
446;;;;;;;7086.19123410909;-0.90087890625;-0.00067047119140625;-0.89996337890625;3;;
447;;;;;;;7086.43537510847;-0.8984375;-0.00066986083984375;-0.8978271484375;3;;
448;;;;;;;7086.67951610785;-0.89599609375;-0.0006689453125;-0.89569091796875;3;;
449;;;;;;;7086.92365710724;-0.8935546875;-0.00066802978515625;-0.89263916015625;3;;
450;;;;;;;7087.16779810662;-0.89111328125;-0.00066741943359375;-0.8905029296875;3;;
451;;;;;;;7087.411939106;-0.888671875;-0.0006671142578125;-0.8880615234375;3;;
452;;;;;;;7087.65608010539;-0.88623046875;-0.0006658935546875;-0.88531494140625;3;;
453;;;;;;;7087.90022110477;-0.8837890625;-0.00066558837890625;-0.88287353515625;3;;
454;;;;;;;7088.14436210416;-0.88134765625;-0.00066497802734375;-0.88043212890625;3;;
455;;;;;;;7088.38850310354;-0.87890625;-0.0006646728515625;-0.8782958984375;3;;
456;;;;;;;7088.63264410292;-0.87646484375;-0.0006640625;-0.87615966796875;3;;
457;;;;;;;7088.87678510231;-0.8740234375;-0.00066375732421875;-0.8734130859375;3;;
458;;;;;;;7089.12092610169;-0.87158203125;-0.00066314697265625;-0.87066650390625;3;;
459;;;;;;;7089.36506710107;-0.869140625;-0.00066253662109375;-0.86883544921875;3;;
460;;;;;;;7089.60920810046;-0.86669921875;-0.00066162109375;-0.86669921875;3;;
461;;;;;;;7089.85334909984;-0.8642578125;-0.0006610107421875;-0.8636474609375;3;;
462;;;;;;;7090.09749009922;-0.86181640625;-0.000660400390625;-0.8612060546875;3;;
463;;;;;;;7090.34163109861;-0.859375;-0.000660400390625;-0.858154296875;3;;
464;;;;;;;7090.58577209799;-0.85693359375;-0.00066009521484375;-0.8563232421875;3;;
465;;;;;;;7090.82991309738;-0.8544921875;-0.0006597900390625;-0.85357666015625;3;;
466;;;;;;;7091.07405409676;-0.85205078125;-0.00065948486328125;-0.85113525390625;3;;
467;;;;;;;7091.31819509614;-0.849609375;-0.00065887451171875;-0.8489990234375;3;;
468;;;;;;;7091.56233609553;-0.84716796875;-0.00065826416015625;-0.84625244140625;3;;
469;;;;;;;7091.80647709491;-0.8447265625;-0.00065765380859375;-0.84442138671875;3;;
470;;;;;;;7092.05061809429;-0.84228515625;-0.00065704345703125;-0.8416748046875;3;;
471;;;;;;;7092.29475909368;-0.83984375;-0.00065704345703125;-0.8392333984375;3;;
472;;;;;;;7092.53890009306;-0.83740234375;-0.00065673828125;-0.8367919921875;3;;
473;;;;;;;7092.78304109244;-0.8349609375;-0.00065673828125;-0.83465576171875;3;;
474;;;;;;;7093.02718209183;-0.83251953125;-0.00065643310546875;-0.83160400390625;3;;
475;;;;;;;7093.27132309121;-0.830078125;-0.0006561279296875;-0.8294677734375;3;;
476;;;;;;;7093.51546409059;-0.82763671875;-0.000655517578125;-0.82672119140625;3;;
477;;;;;;;7093.75960508998;-0.8251953125;-0.00065521240234375;-0.82427978515625;3;;
478;;;;;;;7094.00374608936;-0.82275390625;-0.00065460205078125;-0.8221435546875;3;;
479;;;;;;;7094.24788708875;-0.8203125;-0.000654296875;-0.819091796875;3;;
480;;;;;;;7094.49202808813;-0.81787109375;-0.00065399169921875;-0.81695556640625;3;;
481;;;;;;;7094.73616908751;-0.8154296875;-0.0006536865234375;-0.8148193359375;3;;
482;;;;;;;7094.9803100869;-0.81298828125;-0.0006536865234375;-0.81207275390625;3;;
483;;;;;;;7095.22445108628;-0.810546875;-0.0006536865234375;-0.80902099609375;3;;
484;;;;;;;7095.46859208566;-0.80810546875;-0.0006536865234375;-0.8074951171875;3;;
485;;;;;;;7095.71273308505;-0.8056640625;-0.0006536865234375;-0.80474853515625;3;;
486;;;;;;;7095.95687408443;-0.80322265625;-0.00065338134765625;-0.80230712890625;3;;
487;;;;;;;7096.20101508382;-0.80078125;-0.00065277099609375;-0.79986572265625;3;;
488;;;;;;;7096.4451560832;-0.79833984375;-0.00065216064453125;-0.79742431640625;3;;
489;;;;;;;7096.68929708258;-0.7958984375;-0.000653076171875;-0.7952880859375;3;;
490;;;;;;;7096.93343808197;-0.79345703125;-0.0006536865234375;-0.79254150390625;3;;
491;;;;;;;7097.17757908135;-0.791015625;-0.000654296875;-0.79010009765625;3;;
492;;;;;;;7097.42172008073;-0.78857421875;-0.000654296875;-0.7879638671875;3;;
493;;;;;;;7097.66586108012;-0.7861328125;-0.00065460205078125;-0.78521728515625;3;;
494;;;;;;;7097.9100020795;-0.78369140625;-0.00065460205078125;-0.782470703125;3;;
495;;;;;;;7098.15414307888;-0.78125;-0.000654296875;-0.7806396484375;3;;
496;;;;;;;7098.39828407827;-0.77880859375;-0.000654296875;-0.7781982421875;3;;
497;;;;;;;7098.64242507765;-0.7763671875;-0.000654296875;-0.7763671875;3;;
498;;;;;;;7098.88656607703;-0.77392578125;-0.00065460205078125;-0.772705078125;3;;
499;;;;;;;7099.13070707642;-0.771484375;-0.0006549072265625;-0.7708740234375;3;;
500;;;;;;;7099.3748480758;-0.76904296875;-0.0006549072265625;-0.7684326171875;3;;
501;;;;;;;7099.61898907518;-0.7666015625;-0.00065521240234375;-0.76629638671875;3;;
502;;;;;;;7099.86313007457;-0.76416015625;-0.000655517578125;-0.76385498046875;3;;
503;;;;;;;7100.10727107395;-0.76171875;-0.00065582275390625;-0.76080322265625;3;;
504;;;;;;;7100.35141207334;-0.75927734375;-0.00065643310546875;-0.7586669921875;3;;
505;;;;;;;7100.59555307272;-0.7568359375;-0.00065673828125;-0.7562255859375;3;;
506;;;;;;;7100.8396940721;-0.75439453125;-0.00065704345703125;-0.7537841796875;3;;
507;;;;;;;7101.08383507149;-0.751953125;-0.00065765380859375;-0.7513427734375;3;;
508;;;;;;;7101.32797607087;-0.74951171875;-0.0006585693359375;-0.74822998046875;3;;
509;;;;;;;7101.57211707025;-0.7470703125;-0.0006585693359375;-0.745758056640625;3;;
510;;;;;;;7101.81625806964;-0.74462890625;-0.000657958984375;-0.743316650390625;3;;
511;;;;;;;7102.06039906902;-0.7421875;-0.000657958984375;-0.740936279296875;3;;
512;;;;;;;7102.30454006841;-0.73974609375;-0.00065887451171875;-0.73846435546875;3;;
513;;;;;;;7102.54868106779;-0.7373046875;-0.0006591796875;-0.73602294921875;3;;
514;;;;;;;7102.79282206717;-0.73486328125;-0.00065948486328125;-0.733612060546875;3;;
515;;;;;;;7103.03696306656;-0.732421875;-0.00066009521484375;-0.73114013671875;3;;
516;;;;;;;7103.28110406594;-0.72998046875;-0.000660400390625;-0.728729248046875;3;;
517;;;;;;;7103.52524506532;-0.7275390625;-0.00066131591796875;-0.726287841796875;3;;
518;;;;;;;7103.76938606471;-0.72509765625;-0.00066253662109375;-0.723846435546875;3;;
519;;;;;;;7104.01352706409;-0.72265625;-0.0006634521484375;-0.721405029296875;3;;
520;;;;;;;7104.25766806347;-0.72021484375;-0.00066375732421875;-0.718902587890625;3;;
521;;;;;;;7104.50180906286;-0.7177734375;-0.00066375732421875;-0.716522216796875;3;;
522;;;;;;;7104.74595006224;-0.71533203125;-0.0006646728515625;-0.714080810546875;3;;
523;;;;;;;7104.99009106162;-0.712890625;-0.00066558837890625;-0.711578369140625;3;;
524;;;;;;;7105.23423206101;-0.71044921875;-0.00066619873046875;-0.709259033203125;3;;
525;;;;;;;7105.47837306039;-0.7080078125;-0.00066650390625;-0.706695556640625;3;;
526;;;;;;;7105.72251405977;-0.70556640625;-0.00066680908203125;-0.704345703125;3;;
527;;;;;;;7105.96665505916;-0.703125;-0.000667724609375;-0.701812744140625;3;;
528;;;;;;;7106.21079605854;-0.70068359375;-0.00066864013671875;-0.69940185546875;3;;
529;;;;;;;7106.45493705793;-0.6982421875;-0.00066925048828125;-0.696990966796875;3;;
530;;;;;;;7106.69907805731;-0.69580078125;-0.00066986083984375;-0.69451904296875;3;;
531;;;;;;;7106.94321905669;-0.693359375;-0.00067047119140625;-0.69207763671875;3;;
532;;;;;;;7107.18736005608;-0.69091796875;-0.00067047119140625;-0.68963623046875;3;;
533;;;;;;;7107.43150105546;-0.6884765625;-0.00067047119140625;-0.68719482421875;3;;
534;;;;;;;7107.67564205484;-0.68603515625;-0.0006707763671875;-0.684783935546875;3;;
535;;;;;;;7107.91978305423;-0.68359375;-0.00067138671875;-0.682373046875;3;;
536;;;;;;;7108.16392405361;-0.68115234375;-0.00067169189453125;-0.679901123046875;3;;
537;;;;;;;7108.408065053;-0.6787109375;-0.00067230224609375;-0.677459716796875;3;;
538;;;;;;;7108.65220605238;-0.67626953125;-0.000672607421875;-0.675018310546875;3;;
539;;;;;;;7108.89634705176;-0.673828125;-0.00067291259765625;-0.67254638671875;3;;
540;;;;;;;7109.14048805115;-0.67138671875;-0.00067352294921875;-0.670135498046875;3;;
541;;;;;;;7109.38462905053;-0.6689453125;-0.000673828125;-0.667633056640625;3;;
542;;;;;;;7109.62877004991;-0.66650390625;-0.0006744384765625;-0.66522216796875;3;;
543;;;;;;;7109.8729110493;-0.6640625;-0.00067474365234375;-0.66278076171875;3;;
544;;;;;;;7110.11705204868;-0.66162109375;-0.000675048828125;-0.66033935546875;3;;
545;;;;;;;7110.36119304806;-0.6591796875;-0.000675048828125;-0.657928466796875;3;;
546;;;;;;;7110.60533404745;-0.65673828125;-0.000675048828125;-0.655517578125;3;;
547;;;;;;;7110.84947504683;-0.654296875;-0.000675048828125;-0.65301513671875;3;;
548;;;;;;;7111.09361604621;-0.65185546875;-0.0006756591796875;-0.650604248046875;3;;
549;;;;;;;7111.3377570456;-0.6494140625;-0.00067596435546875;-0.648162841796875;3;;
550;;;;;;;7111.58189804498;-0.64697265625;-0.00067657470703125;-0.64569091796875;3;;
551;;;;;;;7111.82603904437;-0.64453125;-0.0006768798828125;-0.643280029296875;3;;
552;;;;;;;7112.07018004375;-0.64208984375;-0.00067718505859375;-0.64080810546875;3;;
553;;;;;;;7112.31432104313;-0.6396484375;-0.000677490234375;-0.638397216796875;3;;
554;;;;;;;7112.55846204252;-0.63720703125;-0.00067779541015625;-0.63592529296875;3;;
555;;;;;;;7112.8026030419;-0.634765625;-0.0006781005859375;-0.633514404296875;3;;
556;;;;;;;7113.04674404128;-0.63232421875;-0.0006781005859375;-0.631103515625;3;;
557;;;;;;;7113.29088504067;-0.6298828125;-0.00067840576171875;-0.628662109375;3;;
558;;;;;;;7113.53502604005;-0.62744140625;-0.0006787109375;-0.626190185546875;3;;
559;;;;;;;7113.77916703943;-0.625;-0.0006787109375;-0.623748779296875;3;;
560;;;;;;;7114.02330803882;-0.62255859375;-0.0006787109375;-0.621337890625;3;;
561;;;;;;;7114.2674490382;-0.6201171875;-0.0006781005859375;-0.618896484375;3;;
562;;;;;;;7114.51159003758;-0.61767578125;-0.0006781005859375;-0.616424560546875;3;;
563;;;;;;;7114.75573103697;-0.615234375;-0.0006781005859375;-0.614013671875;3;;
564;;;;;;;7114.99987203635;-0.61279296875;-0.00067840576171875;-0.611572265625;3;;
565;;;;;;;7115.24401303574;-0.6103515625;-0.0006781005859375;-0.609100341796875;3;;
566;;;;;;;7115.48815403512;-0.60791015625;-0.000677490234375;-0.606658935546875;3;;
567;;;;;;;7115.7322950345;-0.60546875;-0.00067779541015625;-0.604248046875;3;;
568;;;;;;;7115.97643603389;-0.60302734375;-0.00067840576171875;-0.601806640625;3;;
569;;;;;;;7116.22057703327;-0.6005859375;-0.00067840576171875;-0.59930419921875;3;;
570;;;;;;;7116.46471803265;-0.59814453125;-0.0006781005859375;-0.596893310546875;3;;
571;;;;;;;7116.70885903204;-0.595703125;-0.00067718505859375;-0.594482421875;3;;
572;;;;;;;7116.95300003142;-0.59326171875;-0.00067657470703125;-0.592041015625;3;;
573;;;;;;;7117.1971410308;-0.5908203125;-0.00067596435546875;-0.589599609375;3;;
574;;;;;;;7117.44128203019;-0.58837890625;-0.0006756591796875;-0.58721923828125;3;;
575;;;;;;;7117.68542302957;-0.5859375;-0.000675048828125;-0.584747314453125;3;;
576;;;;;;;7117.92956402896;-0.58349609375;-0.0006744384765625;-0.582305908203125;3;;
577;;;;;;;7118.17370502834;-0.5810546875;-0.000673828125;-0.57989501953125;3;;
578;;;;;;;7118.41784602772;-0.57861328125;-0.000673828125;-0.577423095703125;3;;
579;;;;;;;7118.66198702711;-0.576171875;-0.000673828125;-0.574981689453125;3;;
580;;;;;;;7118.90612802649;-0.57373046875;-0.0006732177734375;-0.572540283203125;3;;
581;;;;;;;7119.15026902587;-0.5712890625;-0.000672607421875;-0.570098876953125;3;;
582;;;;;;;7119.39441002526;-0.56884765625;-0.00067169189453125;-0.56768798828125;3;;
583;;;;;;;7119.63855102464;-0.56640625;-0.0006707763671875;-0.565277099609375;3;;
584;;;;;;;7119.88269202402;-0.56396484375;-0.00067047119140625;-0.562744140625;3;;
585;;;;;;;7120.12683302341;-0.5615234375;-0.00066986083984375;-0.560394287109375;3;;
586;;;;;;;7120.37097402279;-0.55908203125;-0.0006695556640625;-0.557952880859375;3;;
587;;;;;;;7120.61511502217;-0.556640625;-0.00066925048828125;-0.555511474609375;3;;
588;;;;;;;7120.85925602156;-0.55419921875;-0.00066925048828125;-0.5531005859375;3;;
589;;;;;;;7121.10339702094;-0.5517578125;-0.00066864013671875;-0.550628662109375;3;;
590;;;;;;;7121.34753802033;-0.54931640625;-0.00066802978515625;-0.548187255859375;3;;
591;;;;;;;7121.59167901971;-0.546875;-0.00066741943359375;-0.545745849609375;3;;
592;;;;;;;7121.83582001909;-0.54443359375;-0.00066650390625;-0.543304443359375;3;;
593;;;;;;;7122.07996101848;-0.5419921875;-0.00066619873046875;-0.540863037109375;3;;
594;;;;;;;7122.32410201786;-0.53955078125;-0.00066558837890625;-0.5384521484375;3;;
595;;;;;;;7122.56824301724;-0.537109375;-0.00066497802734375;-0.535980224609375;3;;
596;;;;;;;7122.81238401663;-0.53466796875;-0.0006640625;-0.5335693359375;3;;
597;;;;;;;7123.05652501601;-0.5322265625;-0.0006634521484375;-0.531097412109375;3;;
598;;;;;;;7123.3006660154;-0.52978515625;-0.000662841796875;-0.5286865234375;3;;
599;;;;;;;7123.54480701478;-0.52734375;-0.0006622314453125;-0.526275634765625;3;;
600;;;;;;;7123.78894801416;-0.52490234375;-0.00066162109375;-0.523834228515625;3;;
601;;;;;;;7124.03308901355;-0.5224609375;-0.0006610107421875;-0.521392822265625;3;;
602;;;;;;;7124.27723001293;-0.52001953125;-0.00066009521484375;-0.5189208984375;3;;
603;;;;;;;7124.52137101231;-0.517578125;-0.00065948486328125;-0.516510009765625;3;;
604;;;;;;;7124.7655120117;-0.51513671875;-0.00065887451171875;-0.5140380859375;3;;
605;;;;;;;7125.00965301108;-0.5126953125;-0.0006585693359375;-0.5115966796875;3;;
606;;;;;;;7125.25379401046;-0.51025390625;-0.000657958984375;-0.509185791015625;3;;
607;;;;;;;7125.49793500985;-0.5078125;-0.0006573486328125;-0.506744384765625;3;;
608;;;;;;;7125.74207600923;-0.50537109375;-0.00065704345703125;-0.5042724609375;3;;
609;;;;;;;7125.98621700861;-0.5029296875;-0.00065643310546875;-0.501861572265625;3;;
610;;;;;;;7126.230358008;-0.50048828125;-0.00065643310546875;-0.49945068359375;3;;
611;;;;;;;7126.47449900738;-0.498046875;-0.0006561279296875;-0.496978759765625;3;;
612;;;;;;;7126.71864000676;-0.49560546875;-0.00065582275390625;-0.494537353515625;3;;
613;;;;;;;7126.96278100615;-0.4931640625;-0.00065521240234375;-0.49212646484375;3;;
614;;;;;;;7127.20692200553;-0.49072265625;-0.00065460205078125;-0.48968505859375;3;;
615;;;;;;;7127.45106300492;-0.48828125;-0.00065399169921875;-0.487213134765625;3;;
616;;;;;;;7127.6952040043;-0.48583984375;-0.00065338134765625;-0.48480224609375;3;;
617;;;;;;;7127.93934500368;-0.4833984375;-0.000653076171875;-0.482391357421875;3;;
618;;;;;;;7128.18348600307;-0.48095703125;-0.0006524658203125;-0.479949951171875;3;;
619;;;;;;;7128.42762700245;-0.478515625;-0.00065185546875;-0.47747802734375;3;;
620;;;;;;;7128.67176800183;-0.47607421875;-0.0006512451171875;-0.475128173828125;3;;
621;;;;;;;7128.91590900122;-0.4736328125;-0.00065032958984375;-0.47265625;3;;
622;;;;;;;7129.1600500006;-0.47119140625;-0.00064971923828125;-0.470123291015625;3;;
623;;;;;;;7129.40419099999;-0.46875;-0.00064910888671875;-0.4677734375;3;;
624;;;;;;;7129.64833199937;-0.46630859375;-0.000648193359375;-0.46539306640625;3;;
625;;;;;;;7129.89247299875;-0.4638671875;-0.00064727783203125;-0.462860107421875;3;;
626;;;;;;;7130.13661399814;-0.46142578125;-0.0006463623046875;-0.460479736328125;3;;
627;;;;;;;7130.38075499752;-0.458984375;-0.0006451416015625;-0.4580078125;3;;
628;;;;;;;7130.6248959969;-0.45654296875;-0.00064453125;-0.45550537109375;3;;
629;;;;;;;7130.86903699629;-0.4541015625;-0.00064361572265625;-0.453094482421875;3;;
630;;;;;;;7131.11317799567;-0.45166015625;-0.0006427001953125;-0.45068359375;3;;
631;;;;;;;7131.35731899505;-0.44921875;-0.0006414794921875;-0.448272705078125;3;;
632;;;;;;;7131.60145999444;-0.44677734375;-0.0006402587890625;-0.44580078125;3;;
633;;;;;;;7131.84560099382;-0.4443359375;-0.0006390380859375;-0.443389892578125;3;;
634;;;;;;;7132.0897419932;-0.44189453125;-0.0006378173828125;-0.440887451171875;3;;
635;;;;;;;7132.33388299259;-0.439453125;-0.00063629150390625;-0.438507080078125;3;;
636;;;;;;;7132.57802399197;-0.43701171875;-0.000634765625;-0.43609619140625;3;;
637;;;;;;;7132.82216499135;-0.4345703125;-0.00063323974609375;-0.43365478515625;3;;
638;;;;;;;7133.06630599074;-0.43212890625;-0.0006317138671875;-0.43121337890625;3;;
639;;;;;;;7133.31044699012;-0.4296875;-0.00063018798828125;-0.42877197265625;3;;
640;;;;;;;7133.55458798951;-0.42724609375;-0.00062835693359375;-0.426361083984375;3;;
641;;;;;;;7133.79872898889;-0.4248046875;-0.000626220703125;-0.4239501953125;3;;
642;;;;;;;7134.04286998827;-0.42236328125;-0.00062408447265625;-0.42144775390625;3;;
643;;;;;;;7134.28701098766;-0.419921875;-0.0006219482421875;-0.41900634765625;3;;
644;;;;;;;7134.53115198704;-0.41748046875;-0.00061981201171875;-0.41656494140625;3;;
645;;;;;;;7134.77529298642;-0.4150390625;-0.00061737060546875;-0.41412353515625;3;;
646;;;;;;;7135.01943398581;-0.41259765625;-0.00061492919921875;-0.4117431640625;3;;
647;;;;;;;7135.26357498519;-0.41015625;-0.0006121826171875;-0.4093017578125;3;;
648;;;;;;;7135.50771598458;-0.40771484375;-0.000609130859375;-0.406829833984375;3;;
649;;;;;;;7135.75185698396;-0.4052734375;-0.0006060791015625;-0.404388427734375;3;;
650;;;;;;;7135.99599798334;-0.40283203125;-0.00060272216796875;-0.402008056640625;3;;
651;;;;;;;7136.24013898273;-0.400390625;-0.00059906005859375;-0.399505615234375;3;;
652;;;;;;;7136.48427998211;-0.39794921875;-0.00059539794921875;-0.3970947265625;3;;
653;;;;;;;7136.72842098149;-0.3955078125;-0.0005914306640625;-0.3946533203125;3;;
654;;;;;;;7136.97256198088;-0.39306640625;-0.000587158203125;-0.3922119140625;3;;
655;;;;;;;7137.21670298026;-0.390625;-0.00058258056640625;-0.389739990234375;3;;
656;;;;;;;7137.46084397964;-0.38818359375;-0.00057769775390625;-0.387359619140625;3;;
657;;;;;;;7137.70498497903;-0.3857421875;-0.00057281494140625;-0.3848876953125;3;;
658;;;;;;;7137.94912597841;-0.38330078125;-0.000567626953125;-0.382415771484375;3;;
659;;;;;;;7138.19326697779;-0.380859375;-0.00056243896484375;-0.3800048828125;3;;
660;;;;;;;7138.43740797718;-0.37841796875;-0.00055694580078125;-0.377471923828125;3;;
661;;;;;;;7138.68154897656;-0.3759765625;-0.0005511474609375;-0.375152587890625;3;;
662;;;;;;;7138.92568997595;-0.37353515625;-0.0005450439453125;-0.372711181640625;3;;
663;;;;;;;7139.16983097533;-0.37109375;-0.0005389404296875;-0.370269775390625;3;;
664;;;;;;;7139.41397197471;-0.36865234375;-0.00053253173828125;-0.367889404296875;3;;
665;;;;;;;7139.6581129741;-0.3662109375;-0.00052581787109375;-0.365386962890625;3;;
666;;;;;;;7139.90225397348;-0.36376953125;-0.000518798828125;-0.3629150390625;3;;
667;;;;;;;7140.14639497286;-0.361328125;-0.00051177978515625;-0.36053466796875;3;;
668;;;;;;;7140.39053597225;-0.35888671875;-0.00050445556640625;-0.35809326171875;3;;
669;;;;;;;7140.63467697163;-0.3564453125;-0.000497100830078125;-0.355621337890625;3;;
670;;;;;;;7140.87881797101;-0.35400390625;-0.000489349365234375;-0.35321044921875;3;;
671;;;;;;;7141.1229589704;-0.3515625;-0.000481536865234375;-0.35076904296875;3;;
672;;;;;;;7141.36709996978;-0.34912109375;-0.000473419189453125;-0.348388671875;3;;
673;;;;;;;7141.61124096917;-0.3466796875;-0.00046514892578125;-0.345947265625;3;;
674;;;;;;;7141.85538196855;-0.34423828125;-0.000456756591796875;-0.343475341796875;3;;
675;;;;;;;7142.09952296793;-0.341796875;-0.0004482421875;-0.34100341796875;3;;
676;;;;;;;7142.34366396732;-0.33935546875;-0.00043963623046875;-0.33856201171875;3;;
677;;;;;;;7142.5878049667;-0.3369140625;-0.000430877685546875;-0.336151123046875;3;;
678;;;;;;;7142.83194596608;-0.33447265625;-0.000422027587890625;-0.33367919921875;3;;
679;;;;;;;7143.07608696547;-0.33203125;-0.000413055419921875;-0.33123779296875;3;;
680;;;;;;;7143.32022796485;-0.32958984375;-0.000403961181640625;-0.328826904296875;3;;
681;;;;;;;7143.56436896423;-0.3271484375;-0.000394775390625;-0.326416015625;3;;
682;;;;;;;7143.80850996362;-0.32470703125;-0.000385498046875;-0.324005126953125;3;;
683;;;;;;;7144.052650963;-0.322265625;-0.00037615966796875;-0.321502685546875;3;;
684;;;;;;;7144.29679196238;-0.31982421875;-0.000366729736328125;-0.319061279296875;3;;
685;;;;;;;7144.54093296177;-0.3173828125;-0.0003572998046875;-0.316650390625;3;;
686;;;;;;;7144.78507396115;-0.31494140625;-0.000347900390625;-0.314178466796875;3;;
687;;;;;;;7145.02921496054;-0.3125;-0.000338409423828125;-0.31182861328125;3;;
688;;;;;;;7145.27335595992;-0.31005859375;-0.0003289794921875;-0.309326171875;3;;
689;;;;;;;7145.5174969593;-0.3076171875;-0.000319610595703125;-0.306854248046875;3;;
690;;;;;;;7145.76163795869;-0.30517578125;-0.000310302734375;-0.30450439453125;3;;
691;;;;;;;7146.00577895807;-0.302734375;-0.000300994873046875;-0.302032470703125;3;;
692;;;;;;;7146.24991995745;-0.30029296875;-0.000291717529296875;-0.299530029296875;3;;
693;;;;;;;7146.49406095684;-0.2978515625;-0.00028265380859375;-0.297149658203125;3;;
694;;;;;;;7146.73820195622;-0.29541015625;-0.000273651123046875;-0.294677734375;3;;
695;;;;;;;7146.9823429556;-0.29296875;-0.00026483154296875;-0.29229736328125;3;;
696;;;;;;;7147.22648395499;-0.29052734375;-0.000256103515625;-0.289794921875;3;;
697;;;;;;;7147.47062495437;-0.2880859375;-0.00024749755859375;-0.287353515625;3;;
698;;;;;;;7147.71476595376;-0.28564453125;-0.000239013671875;-0.28497314453125;3;;
699;;;;;;;7147.95890695314;-0.283203125;-0.000230712890625;-0.28253173828125;3;;
700;;;;;;;7148.20304795252;-0.28076171875;-0.0002225341796875;-0.28009033203125;3;;
701;;;;;;;7148.44718895191;-0.2783203125;-0.000214508056640625;-0.277618408203125;3;;
702;;;;;;;7148.69132995129;-0.27587890625;-0.0002066650390625;-0.275238037109375;3;;
703;;;;;;;7148.93547095067;-0.2734375;-0.000199127197265625;-0.2728271484375;3;;
704;;;;;;;7149.17961195006;-0.27099609375;-0.000191619873046875;-0.270355224609375;3;;
705;;;;;;;7149.42375294944;-0.2685546875;-0.000184326171875;-0.2679443359375;3;;
706;;;;;;;7149.66789394882;-0.26611328125;-0.00017718505859375;-0.26544189453125;3;;
707;;;;;;;7149.91203494821;-0.263671875;-0.000170257568359375;-0.2630615234375;3;;
708;;;;;;;7150.15617594759;-0.26123046875;-0.00016351318359375;-0.260589599609375;3;;
709;;;;;;;7150.40031694697;-0.2587890625;-0.000156951904296875;-0.25811767578125;3;;
710;;;;;;;7150.64445794636;-0.25634765625;-0.00015057373046875;-0.255706787109375;3;;
711;;;;;;;7150.88859894574;-0.25390625;-0.000144378662109375;-0.25323486328125;3;;
712;;;;;;;7151.13273994513;-0.25146484375;-0.000138336181640625;-0.25091552734375;3;;
713;;;;;;;7151.37688094451;-0.2490234375;-0.000132537841796875;-0.248443603515625;3;;
714;;;;;;;7151.62102194389;-0.24658203125;-0.0001268310546875;-0.246002197265625;3;;
715;;;;;;;7151.86516294328;-0.244140625;-0.00012127685546875;-0.2435302734375;3;;
716;;;;;;;7152.10930394266;-0.24169921875;-0.000115997314453125;-0.2410888671875;3;;
717;;;;;;;7152.35344494204;-0.2392578125;-0.000110870361328125;-0.238677978515625;3;;
718;;;;;;;7152.59758594143;-0.23681640625;-0.000105926513671875;-0.2362060546875;3;;
719;;;;;;;7152.84172694081;-0.234375;-0.000101165771484375;-0.23382568359375;3;;
720;;;;;;;7153.08586794019;-0.23193359375;-9.65576171875E-05;-0.2313232421875;3;;
721;;;;;;;7153.33000893958;-0.2294921875;-9.2132568359375E-05;-0.2288818359375;3;;
722;;;;;;;7153.57414993896;-0.22705078125;-8.7890625E-05;-0.226470947265625;3;;
723;;;;;;;7153.81829093834;-0.224609375;-8.380126953125E-05;-0.224029541015625;3;;
724;;;;;;;7154.06243193773;-0.22216796875;-7.9864501953125E-05;-0.2215576171875;3;;
725;;;;;;;7154.30657293711;-0.2197265625;-7.6202392578125E-05;-0.219085693359375;3;;
726;;;;;;;7154.5507139365;-0.21728515625;-7.2601318359375E-05;-0.21661376953125;3;;
727;;;;;;;7154.79485493588;-0.21484375;-6.915283203125E-05;-0.2142333984375;3;;
728;;;;;;;7155.03899593526;-0.21240234375;-6.57958984375E-05;-0.211822509765625;3;;
729;;;;;;;7155.28313693465;-0.2099609375;-6.2652587890625E-05;-0.209381103515625;3;;
730;;;;;;;7155.52727793403;-0.20751953125;-5.9600830078125E-05;-0.206878662109375;3;;
731;;;;;;;7155.77141893341;-0.205078125;-5.6732177734375E-05;-0.204498291015625;3;;
732;;;;;;;7156.0155599328;-0.20263671875;-5.3924560546875E-05;-0.20208740234375;3;;
733;;;;;;;7156.25970093218;-0.2001953125;-5.1239013671875E-05;-0.199676513671875;3;;
734;;;;;;;7156.50384193156;-0.19775390625;-4.87060546875E-05;-0.19720458984375;3;;
735;;;;;;;7156.74798293095;-0.1953125;-4.63531494140625E-05;-0.194732666015625;3;;
736;;;;;;;7156.99212393033;-0.19287109375;-4.40521240234375E-05;-0.1923828125;3;;
737;;;;;;;7157.23626492972;-0.1904296875;-4.18212890625E-05;-0.18988037109375;3;;
738;;;;;;;7157.4804059291;-0.18798828125;-3.97247314453125E-05;-0.187408447265625;3;;
739;;;;;;;7157.72454692848;-0.185546875;-3.7713623046875E-05;-0.185028076171875;3;;
740;;;;;;;7157.96868792787;-0.18310546875;-3.57513427734375E-05;-0.1826171875;3;;
741;;;;;;;7158.21282892725;-0.1806640625;-3.39263916015625E-05;-0.180145263671875;3;;
742;;;;;;;7158.45696992663;-0.17822265625;-3.21197509765625E-05;-0.177703857421875;3;;
743;;;;;;;7158.70111092602;-0.17578125;-3.045654296875E-05;-0.175323486328125;3;;
744;;;;;;;7158.9452519254;-0.17333984375;-2.8857421875E-05;-0.1728515625;3;;
745;;;;;;;7159.18939292478;-0.1708984375;-2.73345947265625E-05;-0.17041015625;3;;
746;;;;;;;7159.43353392417;-0.16845703125;-2.58636474609375E-05;-0.167938232421875;3;;
747;;;;;;;7159.67767492355;-0.166015625;-2.44659423828125E-05;-0.165496826171875;3;;
748;;;;;;;7159.92181592293;-0.16357421875;-2.31475830078125E-05;-0.16314697265625;3;;
749;;;;;;;7160.16595692232;-0.1611328125;-2.1856689453125E-05;-0.16070556640625;3;;
750;;;;;;;7160.4100979217;-0.15869140625;-2.06085205078125E-05;-0.15826416015625;3;;
751;;;;;;;7160.65423892109;-0.15625;-1.94915771484375E-05;-0.15582275390625;3;;
752;;;;;;;7160.89837992047;-0.15380859375;-1.83624267578125E-05;-0.153411865234375;3;;
753;;;;;;;7161.14252091985;-0.1513671875;-1.73095703125E-05;-0.150970458984375;3;;
754;;;;;;;7161.38666191924;-0.14892578125;-1.62933349609375E-05;-0.1484375;3;;
755;;;;;;;7161.63080291862;-0.146484375;-1.5350341796875E-05;-0.146087646484375;3;;
756;;;;;;;7161.874943918;-0.14404296875;-1.44317626953125E-05;-0.143646240234375;3;;
757;;;;;;;7162.11908491739;-0.1416015625;-1.3525390625E-05;-0.14117431640625;3;;
758;;;;;;;7162.36322591677;-0.13916015625;-1.26922607421875E-05;-0.138763427734375;3;;
759;;;;;;;7162.60736691616;-0.13671875;-1.1895751953125E-05;-0.136322021484375;3;;
760;;;;;;;7162.85150791554;-0.13427734375;-1.1114501953125E-05;-0.13385009765625;3;;
761;;;;;;;7163.09564891492;-0.1318359375;-1.04217529296875E-05;-0.13140869140625;3;;
762;;;;;;;7163.33978991431;-0.12939453125;-9.7137451171875E-06;-0.1290283203125;3;;
763;;;;;;;7163.58393091369;-0.126953125;-9.0484619140625E-06;-0.1265869140625;3;;
764;;;;;;;7163.82807191307;-0.12451171875;-8.428955078125E-06;-0.124053955078125;3;;
765;;;;;;;7164.07221291246;-0.1220703125;-7.806396484375E-06;-0.121673583984375;3;;
766;;;;;;;7164.31635391184;-0.11962890625;-7.2509765625E-06;-0.119232177734375;3;;
767;;;;;;;7164.56049491122;-0.1171875;-6.6650390625E-06;-0.116790771484375;3;;
768;;;;;;;7164.80463591061;-0.11474609375;-6.14013671875E-06;-0.114410400390625;3;;
769;;;;;;;7165.04877690999;-0.1123046875;-5.621337890625E-06;-0.111907958984375;3;;
770;;;;;;;7165.29291790937;-0.10986328125;-5.16357421875E-06;-0.10943603515625;3;;
771;;;;;;;7165.53705890876;-0.107421875;-4.6722412109375E-06;-0.1070556640625;3;;
772;;;;;;;7165.78119990814;-0.10498046875;-4.2144775390625E-06;-0.104583740234375;3;;
773;;;;;;;7166.02534090752;-0.1025390625;-3.778076171875E-06;-0.1021728515625;3;;
774;;;;;;;7166.26948190691;-0.10009765625;-3.34320068359375E-06;-0.099761962890625;3;;
775;;;;;;;7166.51362290629;-0.09765625;-2.96051025390625E-06;-0.097259521484375;3;;
776;;;;;;;7166.75776390568;-0.09521484375;-2.58148193359375E-06;-0.09490966796875;3;;
777;;;;;;;7167.00190490506;-0.0927734375;-2.16766357421875E-06;-0.092437744140625;3;;
778;;;;;;;7167.24604590444;-0.09033203125;-1.8194580078125E-06;-0.089996337890625;3;;
779;;;;;;;7167.49018690383;-0.087890625;-1.46270751953125E-06;-0.0875244140625;3;;
780;;;;;;;7167.73432790321;-0.08544921875;-1.10321044921875E-06;-0.085174560546875;3;;
781;;;;;;;7167.97846890259;-0.0830078125;-7.672119140625E-07;-0.082733154296875;3;;
782;;;;;;;7168.22260990198;-0.08056640625;-4.4921875E-07;-0.080291748046875;3;;
783;;;;;;;7168.46675090136;-0.078125;-1.104736328125E-07;-0.07781982421875;3;;
784;;;;;;;7168.71089190075;-0.07568359375;2.0416259765625E-07;-0.07537841796875;3;;
785;;;;;;;7168.95503290013;-0.0732421875;5.1544189453125E-07;-0.07293701171875;3;;
786;;;;;;;7169.19917389951;-0.07080078125;8.1512451171875E-07;-0.07049560546875;3;;
787;;;;;;;7169.4433148989;-0.068359375;1.13067626953125E-06;-0.06817626953125;3;;
788;;;;;;;7169.68745589828;-0.06591796875;1.41937255859375E-06;-0.06591796875;3;;
789;;;;;;;7169.93159689766;-0.0634765625;1.689453125E-06;-0.0633544921875;3;;
790;;;;;;;7170.17573789705;-0.06103515625;1.97723388671875E-06;-0.061004638671875;3;;
791;;;;;;;7170.41987889643;-0.05859375;2.24334716796875E-06;-0.058563232421875;3;;
792;;;;;;;7170.66401989581;-0.05615234375;2.523193359375E-06;-0.0562744140625;3;;
793;;;;;;;7170.9081608952;-0.0537109375;2.762451171875E-06;-0.053863525390625;3;;
794;;;;;;;7171.15230189458;-0.05126953125;3.02886962890625E-06;-0.0513916015625;3;;
795;;;;;;;7171.39644289396;-0.048828125;3.270263671875E-06;-0.0484954833984375;3;;
796;;;;;;;7171.64058389335;-0.04638671875;3.52142333984375E-06;-0.046051025390625;3;;
797;;;;;;;7171.88472489273;-0.0439453125;3.759765625E-06;-0.043609619140625;3;;
798;;;;;;;7172.12886589211;-0.04150390625;3.9947509765625E-06;-0.0411895751953125;3;;
799;;;;;;;7172.3730068915;-0.0390625;4.254150390625E-06;-0.03875732421875;3;;
800;;;;;;;7172.61714789088;-0.03662109375;4.50439453125E-06;-0.0363311767578125;3;;
801;;;;;;;7172.86128889027;-0.0341796875;4.7088623046875E-06;-0.033929443359375;3;;
802;;;;;;;7173.10542988965;-0.03173828125;4.901123046875E-06;-0.0314422607421875;3;;
803;;;;;;;7173.34957088903;-0.029296875;5.1177978515625E-06;-0.0290191650390625;3;;
804;;;;;;;7173.59371188842;-0.02685546875;5.3192138671875E-06;-0.0265594482421875;3;;
805;;;;;;;7173.8378528878;-0.0244140625;5.4718017578125E-06;-0.024176025390625;3;;
806;;;;;;;7174.08199388718;-0.02197265625;5.70068359375E-06;-0.021697998046875;3;;
807;;;;;;;7174.32613488657;-0.01953125;5.859375E-06;-0.0192596435546875;3;;
808;;;;;;;7174.57027588595;-0.01708984375;6.0302734375E-06;-0.01683349609375;3;;
809;;;;;;;7174.81441688534;-0.0146484375;6.1859130859375E-06;-0.0143829345703125;3;;
810;;;;;;;7175.05855788472;-0.01220703125;6.3446044921875E-06;-0.01195068359375;3;;
811;;;;;;;7175.3026988841;-0.009765625;6.427001953125E-06;-0.009503173828125;3;;
812;;;;;;;7175.54683988349;-0.00732421875;6.5521240234375E-06;-0.00708923339843751;3;;
813;;;;;;;7175.79098088287;-0.0048828125;6.70166015625E-06;-0.0046356201171875;3;;
814;;;;;;;7176.03512188225;-0.00244140625;6.7840576171875E-06;-0.002197265625;3;;
815;;;;;;;7176.27926288164;0;6.87255859375E-06;0.000262451171874997;3;;
816;;;;;;;7176.52340388102;0.00244140625;6.9305419921875E-06;0.00267333984375;3;;
817;;;;;;;7176.7675448804;0.0048828125;7.0037841796875E-06;0.0051239013671875;3;;
818;;;;;;;7177.01168587979;0.00732421875;7.0648193359375E-06;0.0075531005859375;3;;
819;;;;;;;7177.25582687917;0.009765625;7.1075439453125E-06;0.0100006103515625;3;;
820;;;;;;;7177.49996787855;0.01220703125;7.159423828125E-06;0.0124664306640625;3;;
821;;;;;;;7177.74410887794;0.009765625;6.38427734375E-06;0.010009765625;3;;
822;;;;;;;7177.98824987732;0.00732421875;5.755615234375E-06;0.00756225585937501;3;;
823;;;;;;;7178.23239087671;0.0048828125;5.2734375E-06;0.005108642578125;3;;
824;;;;;;;7178.47653187609;0.00244140625;4.79736328125E-06;0.00267639160156249;3;;
825;;;;;;;7178.72067287547;0;4.3792724609375E-06;0.000234985351562494;3;;
826;;;;;;;7178.96481387486;-0.00244140625;4.0252685546875E-06;-0.00220947265625;3;;
827;;;;;;;7179.20895487424;-0.0048828125;3.6834716796875E-06;-0.0046539306640625;3;;
828;;;;;;;7179.45309587362;-0.00732421875;3.3734130859375E-06;-0.0070770263671875;3;;
829;;;;;;;7179.69723687301;-0.009765625;3.0926513671875E-06;-0.00951232910156249;3;;
830;;;;;;;7179.94137787239;-0.01220703125;2.82470703125E-06;-0.0119384765625;3;;
831;;;;;;;;;;;;;
832;;;;;;;;;;;;;
833;;;;;;;;;;;;;
834;;;;;;;;;;;;;
835;;;;;;;;;;;;;
836;;;;;;;;;;;;;
837;;;;;;;;;;;;;
838;;;;;;;;;;;;;
839;;;;;;;;;;;;;
840;;;;;;;;;;;;;
841;;;;;;;;;;;;;
842;;;;;;;;;;;;;
843;;;;;;;;;;;;;
844;;;;;;;;;;;;;
845;;;;;;;;;;;;;
846;;;;;;;;;;;;;
847;;;;;;;;;;;;;
848;;;;;;;;;;;;;
849;;;;;;;;;;;;;
850;;;;;;;;;;;;;
851;;;;;;;;;;;;;
852;;;;;;;;;;;;;
853;;;;;;;;;;;;;
854;;;;;;;;;;;;;
855;;;;;;;;;;;;;
856;;;;;;;;;;;;;
857;;;;;;;;;;;;;
858;;;;;;;;;;;;;
859;;;;;;;;;;;;;
860;;;;;;;;;;;;;
861;;;;;;;;;;;;;
862;;;;;;;;;;;;;
863;;;;;;;;;;;;;
864;;;;;;;;;;;;;
865;;;;;;;;;;;;;
866;;;;;;;;;;;;;
867;;;;;;;;;;;;;
868;;;;;;;;;;;;;
869;;;;;;;;;;;;;
870;;;;;;;;;;;;;
871;;;;;;;;;;;;;
872;;;;;;;;;;;;;
873;;;;;;;;;;;;;
874;;;;;;;;;;;;;
875;;;;;;;;;;;;;
876;;;;;;;;;;;;;
877;;;;;;;;;;;;;
878;;;;;;;;;;;;;
879;;;;;;;;;;;;;
880;;;;;;;;;;;;;
881;;;;;;;;;;;;;
882;;;;;;;;;;;;;
883;;;;;;;;;;;;;
884;;;;;;;;;;;;;
885;;;;;;;;;;;;;
886;;;;;;;;;;;;;
887;;;;;;;;;;;;;
888;;;;;;;;;;;;;
889;;;;;;;;;;;;;
890;;;;;;;;;;;;;
891;;;;;;;;;;;;;
892;;;;;;;;;;;;;
893;;;;;;;;;;;;;
894;;;;;;;;;;;;;
895;;;;;;;;;;;;;
896;;;;;;;;;;;;;
897;;;;;;;;;;;;;
898;;;;;;;;;;;;;
899;;;;;;;;;;;;;
900;;;;;;;;;;;;;
901;;;;;;;;;;;;;
902;;;;;;;;;;;;;
903;;;;;;;;;;;;;
904;;;;;;;;;;;;;
905;;;;;;;;;;;;;
906;;;;;;;;;;;;;
907;;;;;;;;;;;;;
908;;;;;;;;;;;;;
909;;;;;;;;;;;;;
910;;;;;;;;;;;;;
911;;;;;;;;;;;;;
912;;;;;;;;;;;;;
913;;;;;;;;;;;;;
914;;;;;;;;;;;;;
915;;;;;;;;;;;;;
916;;;;;;;;;;;;;
917;;;;;;;;;;;;;
918;;;;;;;;;;;;;
919;;;;;;;;;;;;;
920;;;;;;;;;;;;;
921;;;;;;;;;;;;;
922;;;;;;;;;;;;;
923;;;;;;;;;;;;;
924;;;;;;;;;;;;;
925;;;;;;;;;;;;;
926;;;;;;;;;;;;;
927;;;;;;;;;;;;;
928;;;;;;;;;;;;;
929;;;;;;;;;;;;;
930;;;;;;;;;;;;;
931;;;;;;;;;;;;;
932;;;;;;;;;;;;;
933;;;;;;;;;;;;;
934;;;;;;;;;;;;;
935;;;;;;;;;;;;;
936;;;;;;;;;;;;;
937;;;;;;;;;;;;;
938;;;;;;;;;;;;;
939;;;;;;;;;;;;;
940;;;;;;;;;;;;;
941;;;;;;;;;;;;;
942;;;;;;;;;;;;;
943;;;;;;;;;;;;;
944;;;;;;;;;;;;;
945;;;;;;;;;;;;;
946;;;;;;;;;;;;;
947;;;;;;;;;;;;;
948;;;;;;;;;;;;;
949;;;;;;;;;;;;;
950;;;;;;;;;;;;;
951;;;;;;;;;;;;;
952;;;;;;;;;;;;;
953;;;;;;;;;;;;;
954;;;;;;;;;;;;;
955;;;;;;;;;;;;;
956;;;;;;;;;;;;;
957;;;;;;;;;;;;;
958;;;;;;;;;;;;;
959;;;;;;;;;;;;;
960;;;;;;;;;;;;;
961;;;;;;;;;;;;;
962;;;;;;;;;;;;;
963;;;;;;;;;;;;;
964;;;;;;;;;;;;;
965;;;;;;;;;;;;;
966;;;;;;;;;;;;;
967;;;;;;;;;;;;;
968;;;;;;;;;;;;;
969;;;;;;;;;;;;;
970;;;;;;;;;;;;;
971;;;;;;;;;;;;;
972;;;;;;;;;;;;;
973;;;;;;;;;;;;;
974;;;;;;;;;;;;;
975;;;;;;;;;;;;;
976;;;;;;;;;;;;;
977;;;;;;;;;;;;;
978;;;;;;;;;;;;;
979;;;;;;;;;;;;;
980;;;;;;;;;;;;;
981;;;;;;;;;;;;;
982;;;;;;;;;;;;;
983;;;;;;;;;;;;;
984;;;;;;;;;;;;;
985;;;;;;;;;;;;;
986;;;;;;;;;;;;;
987;;;;;;;;;;;;;
988;;;;;;;;;;;;;
989;;;;;;;;;;;;;
990;;;;;;;;;;;;;
991;;;;;;;;;;;;;
992;;;;;;;;;;;;;
993;;;;;;;;;;;;;
994;;;;;;;;;;;;;
995;;;;;;;;;;;;;
996;;;;;;;;;;;;;
997;;;;;;;;;;;;;
998;;;;;;;;;;;;;
999;;;;;;;;;;;;;
1000;;;;;;;;;;;;;
1001;;;;;;;;;;;;;
1002;;;;;;;;;;;;;
1003;;;;;;;;;;;;;
1004;;;;;;;;;;;;;
1005;;;;;;;;;;;;;
1006;;;;;;;;;;;;;
1007;;;;;;;;;;;;;
1008;;;;;;;;;;;;;
1009;;;;;;;;;;;;;
1010;;;;;;;;;;;;;
1011;;;;;;;;;;;;;
1012;;;;;;;;;;;;;
1013;;;;;;;;;;;;;
1014;;;;;;;;;;;;;
1015;;;;;;;;;;;;;
1016;;;;;;;;;;;;;
1017;;;;;;;;;;;;;
1018;;;;;;;;;;;;;
1019;;;;;;;;;;;;;
1020;;;;;;;;;;;;;
1021;;;;;;;;;;;;;
1022;;;;;;;;;;;;;
1023;;;;;;;;;;;;;
1024;;;;;;;;;;;;;
1025;;;;;;;;;;;;;
1026;;;;;;;;;;;;;
1027;;;;;;;;;;;;;
1028;;;;;;;;;;;;;
1029;;;;;;;;;;;;;
1030;;;;;;;;;;;;;
1031;;;;;;;;;;;;;
1032;;;;;;;;;;;;;
1033;;;;;;;;;;;;;
1034;;;;;;;;;;;;;
1035;;;;;;;;;;;;;
1036;;;;;;;;;;;;;
1037;;;;;;;;;;;;;
1038;;;;;;;;;;;;;
1039;;;;;;;;;;;;;
1040;;;;;;;;;;;;;
1041;;;;;;;;;;;;;
1042;;;;;;;;;;;;;
1043;;;;;;;;;;;;;
1044;;;;;;;;;;;;;
1045;;;;;;;;;;;;;
1046;;;;;;;;;;;;;
1047;;;;;;;;;;;;;
1048;;;;;;;;;;;;;
1049;;;;;;;;;;;;;
1050;;;;;;;;;;;;;
1051;;;;;;;;;;;;;
1052;;;;;;;;;;;;;
1053;;;;;;;;;;;;;
1054;;;;;;;;;;;;;
1055;;;;;;;;;;;;;
1056;;;;;;;;;;;;;
1057;;;;;;;;;;;;;
1058;;;;;;;;;;;;;
1059;;;;;;;;;;;;;
1060;;;;;;;;;;;;;
1061;;;;;;;;;;;;;
1062;;;;;;;;;;;;;
1063;;;;;;;;;;;;;
1064;;;;;;;;;;;;;
1065;;;;;;;;;;;;;
1066;;;;;;;;;;;;;
1067;;;;;;;;;;;;;
1068;;;;;;;;;;;;;
1069;;;;;;;;;;;;;
1070;;;;;;;;;;;;;
1071;;;;;;;;;;;;;
1072;;;;;;;;;;;;;
1073;;;;;;;;;;;;;
1074;;;;;;;;;;;;;
1075;;;;;;;;;;;;;
1076;;;;;;;;;;;;;
1077;;;;;;;;;;;;;
1078;;;;;;;;;;;;;
1079;;;;;;;;;;;;;
1080;;;;;;;;;;;;;
1081;;;;;;;;;;;;;
1082;;;;;;;;;;;;;
1083;;;;;;;;;;;;;
1084;;;;;;;;;;;;;
1085;;;;;;;;;;;;;
1086;;;;;;;;;;;;;
1087;;;;;;;;;;;;;
1088;;;;;;;;;;;;;
1089;;;;;;;;;;;;;
1090;;;;;;;;;;;;;
1091;;;;;;;;;;;;;
1092;;;;;;;;;;;;;
1093;;;;;;;;;;;;;
1094;;;;;;;;;;;;;
1095;;;;;;;;;;;;;
1096;;;;;;;;;;;;;
1097;;;;;;;;;;;;;
1098;;;;;;;;;;;;;
1099;;;;;;;;;;;;;
1100;;;;;;;;;;;;;
1101;;;;;;;;;;;;;
1102;;;;;;;;;;;;;
1103;;;;;;;;;;;;;
1104;;;;;;;;;;;;;
1105;;;;;;;;;;;;;
1106;;;;;;;;;;;;;
1107;;;;;;;;;;;;;
1108;;;;;;;;;;;;;
1109;;;;;;;;;;;;;
1110;;;;;;;;;;;;;
1111;;;;;;;;;;;;;
1112;;;;;;;;;;;;;
1113;;;;;;;;;;;;;
1114;;;;;;;;;;;;;
1115;;;;;;;;;;;;;
1116;;;;;;;;;;;;;
1117;;;;;;;;;;;;;
1118;;;;;;;;;;;;;
1119;;;;;;;;;;;;;
1120;;;;;;;;;;;;;
1121;;;;;;;;;;;;;
1122;;;;;;;;;;;;;
1123;;;;;;;;;;;;;
1124;;;;;;;;;;;;;
1125;;;;;;;;;;;;;
1126;;;;;;;;;;;;;
1127;;;;;;;;;;;;;
1128;;;;;;;;;;;;;
1129;;;;;;;;;;;;;
1130;;;;;;;;;;;;;
1131;;;;;;;;;;;;;
1132;;;;;;;;;;;;;
1133;;;;;;;;;;;;;
1134;;;;;;;;;;;;;
1135;;;;;;;;;;;;;
1136;;;;;;;;;;;;;
1137;;;;;;;;;;;;;
1138;;;;;;;;;;;;;
1139;;;;;;;;;;;;;
1140;;;;;;;;;;;;;
1141;;;;;;;;;;;;;
1142;;;;;;;;;;;;;
1143;;;;;;;;;;;;;
1144;;;;;;;;;;;;;
1145;;;;;;;;;;;;;
1146;;;;;;;;;;;;;
1147;;;;;;;;;;;;;
1148;;;;;;;;;;;;;
1149;;;;;;;;;;;;;
1150;;;;;;;;;;;;;
1151;;;;;;;;;;;;;
1152;;;;;;;;;;;;;
1153;;;;;;;;;;;;;
1154;;;;;;;;;;;;;
1155;;;;;;;;;;;;;
1156;;;;;;;;;;;;;
1157;;;;;;;;;;;;;
1158;;;;;;;;;;;;;
1159;;;;;;;;;;;;;
1160;;;;;;;;;;;;;
1161;;;;;;;;;;;;;
1162;;;;;;;;;;;;;
1163;;;;;;;;;;;;;
1164;;;;;;;;;;;;;
1165;;;;;;;;;;;;;
1166;;;;;;;;;;;;;
1167;;;;;;;;;;;;;
1168;;;;;;;;;;;;;
1169;;;;;;;;;;;;;
1170;;;;;;;;;;;;;
1171;;;;;;;;;;;;;
1172;;;;;;;;;;;;;
1173;;;;;;;;;;;;;
1174;;;;;;;;;;;;;
1175;;;;;;;;;;;;;
1176;;;;;;;;;;;;;
1177;;;;;;;;;;;;;
1178;;;;;;;;;;;;;
1179;;;;;;;;;;;;;
1180;;;;;;;;;;;;;
1181;;;;;;;;;;;;;
1182;;;;;;;;;;;;;
1183;;;;;;;;;;;;;
1184;;;;;;;;;;;;;
1185;;;;;;;;;;;;;
1186;;;;;;;;;;;;;
1187;;;;;;;;;;;;;
1188;;;;;;;;;;;;;
1189;;;;;;;;;;;;;
1190;;;;;;;;;;;;;
1191;;;;;;;;;;;;;
1192;;;;;;;;;;;;;
1193;;;;;;;;;;;;;
1194;;;;;;;;;;;;;
1195;;;;;;;;;;;;;
1196;;;;;;;;;;;;;
1197;;;;;;;;;;;;;
1198;;;;;;;;;;;;;
1199;;;;;;;;;;;;;
1200;;;;;;;;;;;;;
1201;;;;;;;;;;;;;
1202;;;;;;;;;;;;;
1203;;;;;;;;;;;;;
1204;;;;;;;;;;;;;
1205;;;;;;;;;;;;;
1206;;;;;;;;;;;;;
1207;;;;;;;;;;;;;
1208;;;;;;;;;;;;;
1209;;;;;;;;;;;;;
1210;;;;;;;;;;;;;
1211;;;;;;;;;;;;;
1212;;;;;;;;;;;;;
1213;;;;;;;;;;;;;
1214;;;;;;;;;;;;;
1215;;;;;;;;;;;;;
1216;;;;;;;;;;;;;
1217;;;;;;;;;;;;;
1218;;;;;;;;;;;;;
1219;;;;;;;;;;;;;
1220;;;;;;;;;;;;;
1221;;;;;;;;;;;;;
1222;;;;;;;;;;;;;
1223;;;;;;;;;;;;;
1224;;;;;;;;;;;;;
1225;;;;;;;;;;;;;
1226;;;;;;;;;;;;;
1227;;;;;;;;;;;;;
1228;;;;;;;;;;;;;
1229;;;;;;;;;;;;;
1230;;;;;;;;;;;;;
1231;;;;;;;;;;;;;
1232;;;;;;;;;;;;;
1233;;;;;;;;;;;;;
1234;;;;;;;;;;;;;
1235;;;;;;;;;;;;;
1236;;;;;;;;;;;;;
1237;;;;;;;;;;;;;
1238;;;;;;;;;;;;;
1239;;;;;;;;;;;;;
1240;;;;;;;;;;;;;
1241;;;;;;;;;;;;;
1242;;;;;;;;;;;;;
1243;;;;;;;;;;;;;
1244;;;;;;;;;;;;;
1245;;;;;;;;;;;;;
1246;;;;;;;;;;;;;
1247;;;;;;;;;;;;;
1248;;;;;;;;;;;;;
1249;;;;;;;;;;;;;
1250;;;;;;;;;;;;;
1251;;;;;;;;;;;;;
1252;;;;;;;;;;;;;
1253;;;;;;;;;;;;;
1254;;;;;;;;;;;;;
1255;;;;;;;;;;;;;
1256;;;;;;;;;;;;;
1257;;;;;;;;;;;;;
1258;;;;;;;;;;;;;
1259;;;;;;;;;;;;;
1260;;;;;;;;;;;;;
1261;;;;;;;;;;;;;
1262;;;;;;;;;;;;;
1263;;;;;;;;;;;;;
1264;;;;;;;;;;;;;
1265;;;;;;;;;;;;;
1266;;;;;;;;;;;;;
1267;;;;;;;;;;;;;
1268;;;;;;;;;;;;;
1269;;;;;;;;;;;;;
1270;;;;;;;;;;;;;
1271;;;;;;;;;;;;;
1272;;;;;;;;;;;;;
1273;;;;;;;;;;;;;
1274;;;;;;;;;;;;;
1275;;;;;;;;;;;;;
1276;;;;;;;;;;;;;
1277;;;;;;;;;;;;;
1278;;;;;;;;;;;;;
1279;;;;;;;;;;;;;
1280;;;;;;;;;;;;;
1281;;;;;;;;;;;;;
1282;;;;;;;;;;;;;
1283;;;;;;;;;;;;;
1284;;;;;;;;;;;;;
1285;;;;;;;;;;;;;
1286;;;;;;;;;;;;;
1287;;;;;;;;;;;;;
1288;;;;;;;;;;;;;
1289;;;;;;;;;;;;;
1290;;;;;;;;;;;;;
1291;;;;;;;;;;;;;
1292;;;;;;;;;;;;;
1293;;;;;;;;;;;;;
1294;;;;;;;;;;;;;
1295;;;;;;;;;;;;;
1296;;;;;;;;;;;;;
1297;;;;;;;;;;;;;
1298;;;;;;;;;;;;;
1299;;;;;;;;;;;;;
1300;;;;;;;;;;;;;
1301;;;;;;;;;;;;;
1302;;;;;;;;;;;;;
1303;;;;;;;;;;;;;
1304;;;;;;;;;;;;;
1305;;;;;;;;;;;;;
1306;;;;;;;;;;;;;
1307;;;;;;;;;;;;;
1308;;;;;;;;;;;;;
1309;;;;;;;;;;;;;
1310;;;;;;;;;;;;;
1311;;;;;;;;;;;;;
1312;;;;;;;;;;;;;
1313;;;;;;;;;;;;;
1314;;;;;;;;;;;;;
1315;;;;;;;;;;;;;
1316;;;;;;;;;;;;;
1317;;;;;;;;;;;;;
1318;;;;;;;;;;;;;
1319;;;;;;;;;;;;;
1320;;;;;;;;;;;;;
1321;;;;;;;;;;;;;
1322;;;;;;;;;;;;;
1323;;;;;;;;;;;;;
1324;;;;;;;;;;;;;
1325;;;;;;;;;;;;;
1326;;;;;;;;;;;;;
1327;;;;;;;;;;;;;
1328;;;;;;;;;;;;;
1329;;;;;;;;;;;;;
1330;;;;;;;;;;;;;
1331;;;;;;;;;;;;;
1332;;;;;;;;;;;;;
1333;;;;;;;;;;;;;
1334;;;;;;;;;;;;;
1335;;;;;;;;;;;;;
1336;;;;;;;;;;;;;
1337;;;;;;;;;;;;;
1338;;;;;;;;;;;;;
1339;;;;;;;;;;;;;
1340;;;;;;;;;;;;;
1341;;;;;;;;;;;;;
1342;;;;;;;;;;;;;
1343;;;;;;;;;;;;;
1344;;;;;;;;;;;;;
1345;;;;;;;;;;;;;
1346;;;;;;;;;;;;;
1347;;;;;;;;;;;;;
1348;;;;;;;;;;;;;
1349;;;;;;;;;;;;;
1350;;;;;;;;;;;;;
1351;;;;;;;;;;;;;
1352;;;;;;;;;;;;;
1353;;;;;;;;;;;;;
1354;;;;;;;;;;;;;
1355;;;;;;;;;;;;;
1356;;;;;;;;;;;;;
1357;;;;;;;;;;;;;
1358;;;;;;;;;;;;;
1359;;;;;;;;;;;;;
1360;;;;;;;;;;;;;
1361;;;;;;;;;;;;;
1362;;;;;;;;;;;;;
1363;;;;;;;;;;;;;
1364;;;;;;;;;;;;;
1365;;;;;;;;;;;;;
1366;;;;;;;;;;;;;
1367;;;;;;;;;;;;;
1368;;;;;;;;;;;;;
1369;;;;;;;;;;;;;
1370;;;;;;;;;;;;;
1371;;;;;;;;;;;;;
1372;;;;;;;;;;;;;
1373;;;;;;;;;;;;;
1374;;;;;;;;;;;;;
1375;;;;;;;;;;;;;
1376;;;;;;;;;;;;;
1377;;;;;;;;;;;;;
1378;;;;;;;;;;;;;
1379;;;;;;;;;;;;;
1380;;;;;;;;;;;;;
1381;;;;;;;;;;;;;
1382;;;;;;;;;;;;;
1383;;;;;;;;;;;;;
1384;;;;;;;;;;;;;
1385;;;;;;;;;;;;;
1386;;;;;;;;;;;;;
1387;;;;;;;;;;;;;
1388;;;;;;;;;;;;;
1389;;;;;;;;;;;;;
1390;;;;;;;;;;;;;
1391;;;;;;;;;;;;;
1392;;;;;;;;;;;;;
1393;;;;;;;;;;;;;
1394;;;;;;;;;;;;;
1395;;;;;;;;;;;;;
1396;;;;;;;;;;;;;
1397;;;;;;;;;;;;;
1398;;;;;;;;;;;;;
1399;;;;;;;;;;;;;
1400;;;;;;;;;;;;;
1401;;;;;;;;;;;;;
1402;;;;;;;;;;;;;
1403;;;;;;;;;;;;;
1404;;;;;;;;;;;;;
1405;;;;;;;;;;;;;
1406;;;;;;;;;;;;;
1407;;;;;;;;;;;;;
1408;;;;;;;;;;;;;
1409;;;;;;;;;;;;;
1410;;;;;;;;;;;;;
1411;;;;;;;;;;;;;
1412;;;;;;;;;;;;;
1413;;;;;;;;;;;;;
1414;;;;;;;;;;;;;
1415;;;;;;;;;;;;;
1416;;;;;;;;;;;;;
1417;;;;;;;;;;;;;
1418;;;;;;;;;;;;;
1419;;;;;;;;;;;;;
1420;;;;;;;;;;;;;
1421;;;;;;;;;;;;;
1422;;;;;;;;;;;;;
1423;;;;;;;;;;;;;
1424;;;;;;;;;;;;;
1425;;;;;;;;;;;;;
1426;;;;;;;;;;;;;
1427;;;;;;;;;;;;;
1428;;;;;;;;;;;;;
1429;;;;;;;;;;;;;
1430;;;;;;;;;;;;;
1431;;;;;;;;;;;;;
1432;;;;;;;;;;;;;
1433;;;;;;;;;;;;;
1434;;;;;;;;;;;;;
1435;;;;;;;;;;;;;
1436;;;;;;;;;;;;;
1437;;;;;;;;;;;;;
1438;;;;;;;;;;;;;
1439;;;;;;;;;;;;;
1440;;;;;;;;;;;;;
1441;;;;;;;;;;;;;
1442;;;;;;;;;;;;;
1443;;;;;;;;;;;;;
1444;;;;;;;;;;;;;
1445;;;;;;;;;;;;;
1446;;;;;;;;;;;;;
1447;;;;;;;;;;;;;
1448;;;;;;;;;;;;;
1449;;;;;;;;;;;;;
1450;;;;;;;;;;;;;
1451;;;;;;;;;;;;;
1452;;;;;;;;;;;;;
1453;;;;;;;;;;;;;
1454;;;;;;;;;;;;;
1455;;;;;;;;;;;;;
1456;;;;;;;;;;;;;
1457;;;;;;;;;;;;;
1458;;;;;;;;;;;;;
1459;;;;;;;;;;;;;
1460;;;;;;;;;;;;;
1461;;;;;;;;;;;;;
1462;;;;;;;;;;;;;
1463;;;;;;;;;;;;;
1464;;;;;;;;;;;;;
1465;;;;;;;;;;;;;
1466;;;;;;;;;;;;;
1467;;;;;;;;;;;;;
1468;;;;;;;;;;;;;
1469;;;;;;;;;;;;;
1470;;;;;;;;;;;;;
1471;;;;;;;;;;;;;
1472;;;;;;;;;;;;;
1473;;;;;;;;;;;;;
1474;;;;;;;;;;;;;
1475;;;;;;;;;;;;;
1476;;;;;;;;;;;;;
1477;;;;;;;;;;;;;
1478;;;;;;;;;;;;;
1479;;;;;;;;;;;;;
1480;;;;;;;;;;;;;
1481;;;;;;;;;;;;;
1482;;;;;;;;;;;;;
1483;;;;;;;;;;;;;
1484;;;;;;;;;;;;;
1485;;;;;;;;;;;;;
1486;;;;;;;;;;;;;
1487;;;;;;;;;;;;;
1488;;;;;;;;;;;;;
1489;;;;;;;;;;;;;
1490;;;;;;;;;;;;;
1491;;;;;;;;;;;;;
1492;;;;;;;;;;;;;
1493;;;;;;;;;;;;;
1494;;;;;;;;;;;;;
1495;;;;;;;;;;;;;
1496;;;;;;;;;;;;;
1497;;;;;;;;;;;;;
1498;;;;;;;;;;;;;
1499;;;;;;;;;;;;;
1500;;;;;;;;;;;;;
1501;;;;;;;;;;;;;
1502;;;;;;;;;;;;;
1503;;;;;;;;;;;;;
1504;;;;;;;;;;;;;
1505;;;;;;;;;;;;;
1506;;;;;;;;;;;;;
1507;;;;;;;;;;;;;
1508;;;;;;;;;;;;;
1509;;;;;;;;;;;;;
1510;;;;;;;;;;;;;
1511;;;;;;;;;;;;;
1512;;;;;;;;;;;;;
1513;;;;;;;;;;;;;
1514;;;;;;;;;;;;;
1515;;;;;;;;;;;;;
1516;;;;;;;;;;;;;
1517;;;;;;;;;;;;;
1518;;;;;;;;;;;;;
1519;;;;;;;;;;;;;
1520;;;;;;;;;;;;;
1521;;;;;;;;;;;;;
1522;;;;;;;;;;;;;
1523;;;;;;;;;;;;;
1524;;;;;;;;;;;;;
1525;;;;;;;;;;;;;
1526;;;;;;;;;;;;;
1527;;;;;;;;;;;;;
1528;;;;;;;;;;;;;
1529;;;;;;;;;;;;;
1530;;;;;;;;;;;;;
1531;;;;;;;;;;;;;
1532;;;;;;;;;;;;;
1533;;;;;;;;;;;;;
1534;;;;;;;;;;;;;
1535;;;;;;;;;;;;;
1536;;;;;;;;;;;;;
1537;;;;;;;;;;;;;
1538;;;;;;;;;;;;;
1539;;;;;;;;;;;;;
1540;;;;;;;;;;;;;
1541;;;;;;;;;;;;;
1542;;;;;;;;;;;;;
1543;;;;;;;;;;;;;
1544;;;;;;;;;;;;;
1545;;;;;;;;;;;;;
1546;;;;;;;;;;;;;
1547;;;;;;;;;;;;;
1548;;;;;;;;;;;;;
1549;;;;;;;;;;;;;
1550;;;;;;;;;;;;;
1551;;;;;;;;;;;;;
1552;;;;;;;;;;;;;
1553;;;;;;;;;;;;;
1554;;;;;;;;;;;;;
1555;;;;;;;;;;;;;
1556;;;;;;;;;;;;;
1557;;;;;;;;;;;;;
1558;;;;;;;;;;;;;
1559;;;;;;;;;;;;;
1560;;;;;;;;;;;;;
1561;;;;;;;;;;;;;
1562;;;;;;;;;;;;;
1563;;;;;;;;;;;;;
1564;;;;;;;;;;;;;
1565;;;;;;;;;;;;;
1566;;;;;;;;;;;;;
1567;;;;;;;;;;;;;
1568;;;;;;;;;;;;;
1569;;;;;;;;;;;;;
1570;;;;;;;;;;;;;
1571;;;;;;;;;;;;;
1572;;;;;;;;;;;;;
1573;;;;;;;;;;;;;
1574;;;;;;;;;;;;;
1575;;;;;;;;;;;;;
1576;;;;;;;;;;;;;
1577;;;;;;;;;;;;;
1578;;;;;;;;;;;;;
1579;;;;;;;;;;;;;
1580;;;;;;;;;;;;;
1581;;;;;;;;;;;;;
1582;;;;;;;;;;;;;
1583;;;;;;;;;;;;;
1584;;;;;;;;;;;;;
1585;;;;;;;;;;;;;
1586;;;;;;;;;;;;;
1587;;;;;;;;;;;;;
1588;;;;;;;;;;;;;
1589;;;;;;;;;;;;;
1590;;;;;;;;;;;;;
1591;;;;;;;;;;;;;
1592;;;;;;;;;;;;;
1593;;;;;;;;;;;;;
1594;;;;;;;;;;;;;
1595;;;;;;;;;;;;;
1596;;;;;;;;;;;;;
1597;;;;;;;;;;;;;
1598;;;;;;;;;;;;;
1599;;;;;;;;;;;;;
1600;;;;;;;;;;;;;
1601;;;;;;;;;;;;;
1602;;;;;;;;;;;;;
1603;;;;;;;;;;;;;
1604;;;;;;;;;;;;;
1605;;;;;;;;;;;;;
1606;;;;;;;;;;;;;
1607;;;;;;;;;;;;;
1608;;;;;;;;;;;;;
1609;;;;;;;;;;;;;
1610;;;;;;;;;;;;;
1611;;;;;;;;;;;;;
1612;;;;;;;;;;;;;
1613;;;;;;;;;;;;;
1614;;;;;;;;;;;;;
1615;;;;;;;;;;;;;
1616;;;;;;;;;;;;;
1617;;;;;;;;;;;;;
1618;;;;;;;;;;;;;
1619;;;;;;;;;;;;;
1620;;;;;;;;;;;;;
1621;;;;;;;;;;;;;
1622;;;;;;;;;;;;;
1623;;;;;;;;;;;;;
1624;;;;;;;;;;;;;
1625;;;;;;;;;;;;;
1626;;;;;;;;;;;;;
1627;;;;;;;;;;;;;
1628;;;;;;;;;;;;;
1629;;;;;;;;;;;;;
1630;;;;;;;;;;;;;
1631;;;;;;;;;;;;;
1632;;;;;;;;;;;;;
1633;;;;;;;;;;;;;
1634;;;;;;;;;;;;;
1635;;;;;;;;;;;;;
1636;;;;;;;;;;;;;
1637;;;;;;;;;;;;;
1638;;;;;;;;;;;;;
1639;;;;;;;;;;;;;
1640;;;;;;;;;;;;;
1641;;;;;;;;;;;;;
1642;;;;;;;;;;;;;
1643;;;;;;;;;;;;;
1644;;;;;;;;;;;;;
1645;;;;;;;;;;;;;
1646;;;;;;;;;;;;;
1647;;;;;;;;;;;;;
1648;;;;;;;;;;;;;
1649;;;;;;;;;;;;;
1650;;;;;;;;;;;;;
1651;;;;;;;;;;;;;
1652;;;;;;;;;;;;;
1653;;;;;;;;;;;;;
1654;;;;;;;;;;;;;
1655;;;;;;;;;;;;;
1656;;;;;;;;;;;;;
1657;;;;;;;;;;;;;
1658;;;;;;;;;;;;;
1659;;;;;;;;;;;;;
1660;;;;;;;;;;;;;
1661;;;;;;;;;;;;;
1662;;;;;;;;;;;;;
1663;;;;;;;;;;;;;
1664;;;;;;;;;;;;;
1665;;;;;;;;;;;;;
1666;;;;;;;;;;;;;
1667;;;;;;;;;;;;;
1668;;;;;;;;;;;;;
1669;;;;;;;;;;;;;
1670;;;;;;;;;;;;;
1671;;;;;;;;;;;;;
1672;;;;;;;;;;;;;
1673;;;;;;;;;;;;;
1674;;;;;;;;;;;;;
1675;;;;;;;;;;;;;
1676;;;;;;;;;;;;;
1677;;;;;;;;;;;;;
1678;;;;;;;;;;;;;
1679;;;;;;;;;;;;;
1680;;;;;;;;;;;;;
1681;;;;;;;;;;;;;
1682;;;;;;;;;;;;;
1683;;;;;;;;;;;;;
1684;;;;;;;;;;;;;
1685;;;;;;;;;;;;;
1686;;;;;;;;;;;;;
1687;;;;;;;;;;;;;
1688;;;;;;;;;;;;;
1689;;;;;;;;;;;;;
1690;;;;;;;;;;;;;
1691;;;;;;;;;;;;;
1692;;;;;;;;;;;;;
1693;;;;;;;;;;;;;
1694;;;;;;;;;;;;;
1695;;;;;;;;;;;;;
1696;;;;;;;;;;;;;
1697;;;;;;;;;;;;;
1698;;;;;;;;;;;;;
1699;;;;;;;;;;;;;
1700;;;;;;;;;;;;;
1701;;;;;;;;;;;;;
1702;;;;;;;;;;;;;
1703;;;;;;;;;;;;;
1704;;;;;;;;;;;;;
1705;;;;;;;;;;;;;
1706;;;;;;;;;;;;;
1707;;;;;;;;;;;;;
1708;;;;;;;;;;;;;
1709;;;;;;;;;;;;;
1710;;;;;;;;;;;;;
1711;;;;;;;;;;;;;
1712;;;;;;;;;;;;;
1713;;;;;;;;;;;;;
1714;;;;;;;;;;;;;
1715;;;;;;;;;;;;;
1716;;;;;;;;;;;;;
1717;;;;;;;;;;;;;
1718;;;;;;;;;;;;;
1719;;;;;;;;;;;;;
1720;;;;;;;;;;;;;
1721;;;;;;;;;;;;;
1722;;;;;;;;;;;;;
1723;;;;;;;;;;;;;
1724;;;;;;;;;;;;;
1725;;;;;;;;;;;;;
1726;;;;;;;;;;;;;
1727;;;;;;;;;;;;;
1728;;;;;;;;;;;;;
1729;;;;;;;;;;;;;
1730;;;;;;;;;;;;;
1731;;;;;;;;;;;;;
1732;;;;;;;;;;;;;
1733;;;;;;;;;;;;;
1734;;;;;;;;;;;;;
1735;;;;;;;;;;;;;
1736;;;;;;;;;;;;;
1737;;;;;;;;;;;;;
1738;;;;;;;;;;;;;
1739;;;;;;;;;;;;;
1740;;;;;;;;;;;;;
1741;;;;;;;;;;;;;
1742;;;;;;;;;;;;;
1743;;;;;;;;;;;;;
1744;;;;;;;;;;;;;
1745;;;;;;;;;;;;;
1746;;;;;;;;;;;;;
1747;;;;;;;;;;;;;
1748;;;;;;;;;;;;;
1749;;;;;;;;;;;;;
1750;;;;;;;;;;;;;
1751;;;;;;;;;;;;;
1752;;;;;;;;;;;;;
1753;;;;;;;;;;;;;
1754;;;;;;;;;;;;;
1755;;;;;;;;;;;;;
1756;;;;;;;;;;;;;
1757;;;;;;;;;;;;;
1758;;;;;;;;;;;;;
1759;;;;;;;;;;;;;
1760;;;;;;;;;;;;;
1761;;;;;;;;;;;;;
1762;;;;;;;;;;;;;
1763;;;;;;;;;;;;;
1764;;;;;;;;;;;;;
1765;;;;;;;;;;;;;
1766;;;;;;;;;;;;;
1767;;;;;;;;;;;;;
1768;;;;;;;;;;;;;
1769;;;;;;;;;;;;;
1770;;;;;;;;;;;;;
1771;;;;;;;;;;;;;
1772;;;;;;;;;;;;;
1773;;;;;;;;;;;;;
1774;;;;;;;;;;;;;
1775;;;;;;;;;;;;;
1776;;;;;;;;;;;;;
1777;;;;;;;;;;;;;
1778;;;;;;;;;;;;;
1779;;;;;;;;;;;;;
1780;;;;;;;;;;;;;
1781;;;;;;;;;;;;;
1782;;;;;;;;;;;;;
1783;;;;;;;;;;;;;
1784;;;;;;;;;;;;;
1785;;;;;;;;;;;;;
1786;;;;;;;;;;;;;
1787;;;;;;;;;;;;;
1788;;;;;;;;;;;;;
1789;;;;;;;;;;;;;
1790;;;;;;;;;;;;;
1791;;;;;;;;;;;;;
1792;;;;;;;;;;;;;
1793;;;;;;;;;;;;;
1794;;;;;;;;;;;;;
1795;;;;;;;;;;;;;
1796;;;;;;;;;;;;;
1797;;;;;;;;;;;;;
1798;;;;;;;;;;;;;
1799;;;;;;;;;;;;;
1800;;;;;;;;;;;;;
1801;;;;;;;;;;;;;
1802;;;;;;;;;;;;;
1803;;;;;;;;;;;;;
1804;;;;;;;;;;;;;
1805;;;;;;;;;;;;;
1806;;;;;;;;;;;;;
1807;;;;;;;;;;;;;
1808;;;;;;;;;;;;;
1809;;;;;;;;;;;;;
1810;;;;;;;;;;;;;
1811;;;;;;;;;;;;;
1812;;;;;;;;;;;;;
1813;;;;;;;;;;;;;
1814;;;;;;;;;;;;;
1815;;;;;;;;;;;;;
1816;;;;;;;;;;;;;
1817;;;;;;;;;;;;;
1818;;;;;;;;;;;;;
1819;;;;;;;;;;;;;
1820;;;;;;;;;;;;;
1821;;;;;;;;;;;;;
1822;;;;;;;;;;;;;
1823;;;;;;;;;;;;;
1824;;;;;;;;;;;;;
1825;;;;;;;;;;;;;
1826;;;;;;;;;;;;;
1827;;;;;;;;;;;;;
1828;;;;;;;;;;;;;
1829;;;;;;;;;;;;;
1830;;;;;;;;;;;;;
1831;;;;;;;;;;;;;
1832;;;;;;;;;;;;;
1833;;;;;;;;;;;;;
1834;;;;;;;;;;;;;
1835;;;;;;;;;;;;;
1836;;;;;;;;;;;;;
1837;;;;;;;;;;;;;
1838;;;;;;;;;;;;;
1839;;;;;;;;;;;;;
1840;;;;;;;;;;;;;
1841;;;;;;;;;;;;;
1842;;;;;;;;;;;;;
1843;;;;;;;;;;;;;
1844;;;;;;;;;;;;;
1845;;;;;;;;;;;;;
1846;;;;;;;;;;;;;
1847;;;;;;;;;;;;;
1848;;;;;;;;;;;;;
1849;;;;;;;;;;;;;
1850;;;;;;;;;;;;;
1851;;;;;;;;;;;;;
1852;;;;;;;;;;;;;
1853;;;;;;;;;;;;;
1854;;;;;;;;;;;;;
1855;;;;;;;;;;;;;
1856;;;;;;;;;;;;;
1857;;;;;;;;;;;;;
1858;;;;;;;;;;;;;
1859;;;;;;;;;;;;;
1860;;;;;;;;;;;;;
1861;;;;;;;;;;;;;
1862;;;;;;;;;;;;;
1863;;;;;;;;;;;;;
1864;;;;;;;;;;;;;
1865;;;;;;;;;;;;;
1866;;;;;;;;;;;;;
1867;;;;;;;;;;;;;
1868;;;;;;;;;;;;;
1869;;;;;;;;;;;;;
1870;;;;;;;;;;;;;
1871;;;;;;;;;;;;;
1872;;;;;;;;;;;;;
1873;;;;;;;;;;;;;
1874;;;;;;;;;;;;;
1875;;;;;;;;;;;;;
1876;;;;;;;;;;;;;
1877;;;;;;;;;;;;;
1878;;;;;;;;;;;;;
1879;;;;;;;;;;;;;
1880;;;;;;;;;;;;;
1881;;;;;;;;;;;;;
1882;;;;;;;;;;;;;
1883;;;;;;;;;;;;;
1884;;;;;;;;;;;;;
1885;;;;;;;;;;;;;
1886;;;;;;;;;;;;;
1887;;;;;;;;;;;;;
1888;;;;;;;;;;;;;
1889;;;;;;;;;;;;;
1890;;;;;;;;;;;;;
1891;;;;;;;;;;;;;
1892;;;;;;;;;;;;;
1893;;;;;;;;;;;;;
1894;;;;;;;;;;;;;
1895;;;;;;;;;;;;;
1896;;;;;;;;;;;;;
1897;;;;;;;;;;;;;
1898;;;;;;;;;;;;;
1899;;;;;;;;;;;;;
1900;;;;;;;;;;;;;
1901;;;;;;;;;;;;;
1902;;;;;;;;;;;;;
1903;;;;;;;;;;;;;
1904;;;;;;;;;;;;;
1905;;;;;;;;;;;;;
1906;;;;;;;;;;;;;
1907;;;;;;;;;;;;;
1908;;;;;;;;;;;;;
1909;;;;;;;;;;;;;
1910;;;;;;;;;;;;;
1911;;;;;;;;;;;;;
1912;;;;;;;;;;;;;
1913;;;;;;;;;;;;;
1914;;;;;;;;;;;;;
1915;;;;;;;;;;;;;
1916;;;;;;;;;;;;;
1917;;;;;;;;;;;;;
1918;;;;;;;;;;;;;
1919;;;;;;;;;;;;;
1920;;;;;;;;;;;;;
1921;;;;;;;;;;;;;
1922;;;;;;;;;;;;;
1923;;;;;;;;;;;;;
1924;;;;;;;;;;;;;
1925;;;;;;;;;;;;;
1926;;;;;;;;;;;;;
1927;;;;;;;;;;;;;
1928;;;;;;;;;;;;;
1929;;;;;;;;;;;;;
1930;;;;;;;;;;;;;
1931;;;;;;;;;;;;;
1932;;;;;;;;;;;;;
1933;;;;;;;;;;;;;
1934;;;;;;;;;;;;;
1935;;;;;;;;;;;;;
1936;;;;;;;;;;;;;
1937;;;;;;;;;;;;;
1938;;;;;;;;;;;;;
1939;;;;;;;;;;;;;
1940;;;;;;;;;;;;;
1941;;;;;;;;;;;;;
1942;;;;;;;;;;;;;
1943;;;;;;;;;;;;;
1944;;;;;;;;;;;;;
1945;;;;;;;;;;;;;
1946;;;;;;;;;;;;;
1947;;;;;;;;;;;;;
1948;;;;;;;;;;;;;
1949;;;;;;;;;;;;;
1950;;;;;;;;;;;;;
1951;;;;;;;;;;;;;
1952;;;;;;;;;;;;;
1953;;;;;;;;;;;;;
1954;;;;;;;;;;;;;
1955;;;;;;;;;;;;;
1956;;;;;;;;;;;;;
1957;;;;;;;;;;;;;
1958;;;;;;;;;;;;;
1959;;;;;;;;;;;;;
1960;;;;;;;;;;;;;
1961;;;;;;;;;;;;;
1962;;;;;;;;;;;;;
1963;;;;;;;;;;;;;
1964;;;;;;;;;;;;;
1965;;;;;;;;;;;;;
1966;;;;;;;;;;;;;
1967;;;;;;;;;;;;;
1968;;;;;;;;;;;;;
1969;;;;;;;;;;;;;
1970;;;;;;;;;;;;;
1971;;;;;;;;;;;;;
1972;;;;;;;;;;;;;
1973;;;;;;;;;;;;;
1974;;;;;;;;;;;;;
1975;;;;;;;;;;;;;
1976;;;;;;;;;;;;;
1977;;;;;;;;;;;;;
1978;;;;;;;;;;;;;
1979;;;;;;;;;;;;;
1980;;;;;;;;;;;;;
1981;;;;;;;;;;;;;
1982;;;;;;;;;;;;;
1983;;;;;;;;;;;;;
1984;;;;;;;;;;;;;
1985;;;;;;;;;;;;;
1986;;;;;;;;;;;;;
1987;;;;;;;;;;;;;
1988;;;;;;;;;;;;;
1989;;;;;;;;;;;;;
1990;;;;;;;;;;;;;
1991;;;;;;;;;;;;;
1992;;;;;;;;;;;;;
1993;;;;;;;;;;;;;
1994;;;;;;;;;;;;;
1995;;;;;;;;;;;;;
1996;;;;;;;;;;;;;
1997;;;;;;;;;;;;;
1998;;;;;;;;;;;;;
1999;;;;;;;;;;;;;
2000;;;;;;;;;;;;;
2001;;;;;;;;;;;;;
2002;;;;;;;;;;;;;
2003;;;;;;;;;;;;;
2004;;;;;;;;;;;;;
2005;;;;;;;;;;;;;
2006;;;;;;;;;;;;;
2007;;;;;;;;;;;;;
2008;;;;;;;;;;;;;
2009;;;;;;;;;;;;;
2010;;;;;;;;;;;;;
2011;;;;;;;;;;;;;
2012;;;;;;;;;;;;;
2013;;;;;;;;;;;;;
2014;;;;;;;;;;;;;
2015;;;;;;;;;;;;;
2016;;;;;;;;;;;;;
2017;;;;;;;;;;;;;
2018;;;;;;;;;;;;;
2019;;;;;;;;;;;;;
2020;;;;;;;;;;;;;
2021;;;;;;;;;;;;;
2022;;;;;;;;;;;;;
2023;;;;;;;;;;;;;
2024;;;;;;;;;;;;;
2025;;;;;;;;;;;;;
2026;;;;;;;;;;;;;
2027;;;;;;;;;;;;;
2028;;;;;;;;;;;;;
2029;;;;;;;;;;;;;
2030;;;;;;;;;;;;;
2031;;;;;;;;;;;;;
2032;;;;;;;;;;;;;
2033;;;;;;;;;;;;;
2034;;;;;;;;;;;;;
2035;;;;;;;;;;;;;
2036;;;;;;;;;;;;;
2037;;;;;;;;;;;;;
2038;;;;;;;;;;;;;
2039;;;;;;;;;;;;;
2040;;;;;;;;;;;;;
2041;;;;;;;;;;;;;
2042;;;;;;;;;;;;;
2043;;;;;;;;;;;;;
2044;;;;;;;;;;;;;
2045;;;;;;;;;;;;;
2046;;;;;;;;;;;;;
2047;;;;;;;;;;;;;
2048;;;;;;;;;;;;;
2049;;;;;;;;;;;;;
2050;;;;;;;;;;;;;
2051;;;;;;;;;;;;;
2052;;;;;;;;;;;;;
2053;;;;;;;;;;;;;
2054;;;;;;;;;;;;;
2055;;;;;;;;;;;;;
2056;;;;;;;;;;;;;
2057;;;;;;;;;;;;;
2058;;;;;;;;;;;;;
2059;;;;;;;;;;;;;
2060;;;;;;;;;;;;;
2061;;;;;;;;;;;;;
2062;;;;;;;;;;;;;
2063;;;;;;;;;;;;;
2064;;;;;;;;;;;;;
2065;;;;;;;;;;;;;
2066;;;;;;;;;;;;;
2067;;;;;;;;;;;;;
2068;;;;;;;;;;;;;
2069;;;;;;;;;;;;;
2070;;;;;;;;;;;;;
2071;;;;;;;;;;;;;
2072;;;;;;;;;;;;;
2073;;;;;;;;;;;;;
2074;;;;;;;;;;;;;
2075;;;;;;;;;;;;;
2076;;;;;;;;;;;;;
2077;;;;;;;;;;;;;
2078;;;;;;;;;;;;;
2079;;;;;;;;;;;;;
2080;;;;;;;;;;;;;
2081;;;;;;;;;;;;;
2082;;;;;;;;;;;;;
2083;;;;;;;;;;;;;
2084;;;;;;;;;;;;;
2085;;;;;;;;;;;;;
2086;;;;;;;;;;;;;
2087;;;;;;;;;;;;;
2088;;;;;;;;;;;;;
2089;;;;;;;;;;;;;
2090;;;;;;;;;;;;;
2091;;;;;;;;;;;;;
2092;;;;;;;;;;;;;
2093;;;;;;;;;;;;;
2094;;;;;;;;;;;;;
2095;;;;;;;;;;;;;
2096;;;;;;;;;;;;;
2097;;;;;;;;;;;;;
2098;;;;;;;;;;;;;
2099;;;;;;;;;;;;;
2100;;;;;;;;;;;;;
2101;;;;;;;;;;;;;
2102;;;;;;;;;;;;;
2103;;;;;;;;;;;;;
2104;;;;;;;;;;;;;
2105;;;;;;;;;;;;;
2106;;;;;;;;;;;;;
2107;;;;;;;;;;;;;
2108;;;;;;;;;;;;;
2109;;;;;;;;;;;;;
2110;;;;;;;;;;;;;
2111;;;;;;;;;;;;;
2112;;;;;;;;;;;;;
2113;;;;;;;;;;;;;
2114;;;;;;;;;;;;;
2115;;;;;;;;;;;;;
2116;;;;;;;;;;;;;
2117;;;;;;;;;;;;;
2118;;;;;;;;;;;;;
2119;;;;;;;;;;;;;
2120;;;;;;;;;;;;;
2121;;;;;;;;;;;;;
2122;;;;;;;;;;;;;
2123;;;;;;;;;;;;;
2124;;;;;;;;;;;;;
2125;;;;;;;;;;;;;
2126;;;;;;;;;;;;;
2127;;;;;;;;;;;;;
2128;;;;;;;;;;;;;
2129;;;;;;;;;;;;;
2130;;;;;;;;;;;;;
2131;;;;;;;;;;;;;
2132;;;;;;;;;;;;;
2133;;;;;;;;;;;;;
2134;;;;;;;;;;;;;
2135;;;;;;;;;;;;;
2136;;;;;;;;;;;;;
2137;;;;;;;;;;;;;
2138;;;;;;;;;;;;;
2139;;;;;;;;;;;;;
2140;;;;;;;;;;;;;
2141;;;;;;;;;;;;;
2142;;;;;;;;;;;;;
2143;;;;;;;;;;;;;
2144;;;;;;;;;;;;;
2145;;;;;;;;;;;;;
2146;;;;;;;;;;;;;
2147;;;;;;;;;;;;;
2148;;;;;;;;;;;;;
2149;;;;;;;;;;;;;
2150;;;;;;;;;;;;;
2151;;;;;;;;;;;;;
2152;;;;;;;;;;;;;
2153;;;;;;;;;;;;;
2154;;;;;;;;;;;;;
2155;;;;;;;;;;;;;
2156;;;;;;;;;;;;;
2157;;;;;;;;;;;;;
2158;;;;;;;;;;;;;
2159;;;;;;;;;;;;;
2160;;;;;;;;;;;;;
2161;;;;;;;;;;;;;
2162;;;;;;;;;;;;;
2163;;;;;;;;;;;;;
2164;;;;;;;;;;;;;
2165;;;;;;;;;;;;;
2166;;;;;;;;;;;;;
2167;;;;;;;;;;;;;
2168;;;;;;;;;;;;;
2169;;;;;;;;;;;;;
2170;;;;;;;;;;;;;
2171;;;;;;;;;;;;;
2172;;;;;;;;;;;;;
2173;;;;;;;;;;;;;
2174;;;;;;;;;;;;;
2175;;;;;;;;;;;;;
2176;;;;;;;;;;;;;
2177;;;;;;;;;;;;;
2178;;;;;;;;;;;;;
2179;;;;;;;;;;;;;
2180;;;;;;;;;;;;;
2181;;;;;;;;;;;;;
2182;;;;;;;;;;;;;
2183;;;;;;;;;;;;;
2184;;;;;;;;;;;;;
2185;;;;;;;;;;;;;
2186;;;;;;;;;;;;;
2187;;;;;;;;;;;;;
2188;;;;;;;;;;;;;
2189;;;;;;;;;;;;;
2190;;;;;;;;;;;;;
2191;;;;;;;;;;;;;
2192;;;;;;;;;;;;;
2193;;;;;;;;;;;;;
2194;;;;;;;;;;;;;
2195;;;;;;;;;;;;;
2196;;;;;;;;;;;;;
2197;;;;;;;;;;;;;
2198;;;;;;;;;;;;;
2199;;;;;;;;;;;;;
2200;;;;;;;;;;;;;
2201;;;;;;;;;;;;;
2202;;;;;;;;;;;;;
2203;;;;;;;;;;;;;
2204;;;;;;;;;;;;;
2205;;;;;;;;;;;;;
2206;;;;;;;;;;;;;
2207;;;;;;;;;;;;;
2208;;;;;;;;;;;;;
2209;;;;;;;;;;;;;
2210;;;;;;;;;;;;;
2211;;;;;;;;;;;;;
2212;;;;;;;;;;;;;
2213;;;;;;;;;;;;;
2214;;;;;;;;;;;;;
2215;;;;;;;;;;;;;
2216;;;;;;;;;;;;;
2217;;;;;;;;;;;;;
2218;;;;;;;;;;;;;
2219;;;;;;;;;;;;;
2220;;;;;;;;;;;;;
2221;;;;;;;;;;;;;
2222;;;;;;;;;;;;;
2223;;;;;;;;;;;;;
2224;;;;;;;;;;;;;
2225;;;;;;;;;;;;;
2226;;;;;;;;;;;;;
2227;;;;;;;;;;;;;
2228;;;;;;;;;;;;;
2229;;;;;;;;;;;;;
2230;;;;;;;;;;;;;
2231;;;;;;;;;;;;;
2232;;;;;;;;;;;;;
2233;;;;;;;;;;;;;
2234;;;;;;;;;;;;;
2235;;;;;;;;;;;;;
2236;;;;;;;;;;;;;
2237;;;;;;;;;;;;;
2238;;;;;;;;;;;;;
2239;;;;;;;;;;;;;
2240;;;;;;;;;;;;;
2241;;;;;;;;;;;;;
2242;;;;;;;;;;;;;
2243;;;;;;;;;;;;;
2244;;;;;;;;;;;;;
2245;;;;;;;;;;;;;
2246;;;;;;;;;;;;;
2247;;;;;;;;;;;;;
2248;;;;;;;;;;;;;
2249;;;;;;;;;;;;;
2250;;;;;;;;;;;;;
2251;;;;;;;;;;;;;
2252;;;;;;;;;;;;;
2253;;;;;;;;;;;;;
2254;;;;;;;;;;;;;
2255;;;;;;;;;;;;;
2256;;;;;;;;;;;;;
2257;;;;;;;;;;;;;
2258;;;;;;;;;;;;;
2259;;;;;;;;;;;;;
2260;;;;;;;;;;;;;
2261;;;;;;;;;;;;;
2262;;;;;;;;;;;;;
2263;;;;;;;;;;;;;
2264;;;;;;;;;;;;;
2265;;;;;;;;;;;;;
2266;;;;;;;;;;;;;
2267;;;;;;;;;;;;;
2268;;;;;;;;;;;;;
2269;;;;;;;;;;;;;
2270;;;;;;;;;;;;;
2271;;;;;;;;;;;;;
2272;;;;;;;;;;;;;
2273;;;;;;;;;;;;;
2274;;;;;;;;;;;;;
2275;;;;;;;;;;;;;
2276;;;;;;;;;;;;;
2277;;;;;;;;;;;;;
2278;;;;;;;;;;;;;
2279;;;;;;;;;;;;;
2280;;;;;;;;;;;;;
2281;;;;;;;;;;;;;
2282;;;;;;;;;;;;;
2283;;;;;;;;;;;;;
2284;;;;;;;;;;;;;
2285;;;;;;;;;;;;;
2286;;;;;;;;;;;;;
2287;;;;;;;;;;;;;
2288;;;;;;;;;;;;;
2289;;;;;;;;;;;;;
2290;;;;;;;;;;;;;
2291;;;;;;;;;;;;;
2292;;;;;;;;;;;;;
2293;;;;;;;;;;;;;
2294;;;;;;;;;;;;;
2295;;;;;;;;;;;;;
2296;;;;;;;;;;;;;
2297;;;;;;;;;;;;;
2298;;;;;;;;;;;;;
2299;;;;;;;;;;;;;
2300;;;;;;;;;;;;;
2301;;;;;;;;;;;;;
2302;;;;;;;;;;;;;
2303;;;;;;;;;;;;;
2304;;;;;;;;;;;;;
2305;;;;;;;;;;;;;
2306;;;;;;;;;;;;;
2307;;;;;;;;;;;;;
2308;;;;;;;;;;;;;
2309;;;;;;;;;;;;;
2310;;;;;;;;;;;;;
2311;;;;;;;;;;;;;
2312;;;;;;;;;;;;;
2313;;;;;;;;;;;;;
2314;;;;;;;;;;;;;
2315;;;;;;;;;;;;;
2316;;;;;;;;;;;;;
2317;;;;;;;;;;;;;
2318;;;;;;;;;;;;;
2319;;;;;;;;;;;;;
2320;;;;;;;;;;;;;
2321;;;;;;;;;;;;;
2322;;;;;;;;;;;;;
2323;;;;;;;;;;;;;
2324;;;;;;;;;;;;;
2325;;;;;;;;;;;;;
2326;;;;;;;;;;;;;
2327;;;;;;;;;;;;;
2328;;;;;;;;;;;;;
2329;;;;;;;;;;;;;
2330;;;;;;;;;;;;;
2331;;;;;;;;;;;;;
2332;;;;;;;;;;;;;
2333;;;;;;;;;;;;;
2334;;;;;;;;;;;;;
2335;;;;;;;;;;;;;
2336;;;;;;;;;;;;;
2337;;;;;;;;;;;;;
2338;;;;;;;;;;;;;
2339;;;;;;;;;;;;;
2340;;;;;;;;;;;;;
2341;;;;;;;;;;;;;
2342;;;;;;;;;;;;;
2343;;;;;;;;;;;;;
2344;;;;;;;;;;;;;
2345;;;;;;;;;;;;;
2346;;;;;;;;;;;;;
2347;;;;;;;;;;;;;
2348;;;;;;;;;;;;;
2349;;;;;;;;;;;;;
2350;;;;;;;;;;;;;
2351;;;;;;;;;;;;;
2352;;;;;;;;;;;;;
2353;;;;;;;;;;;;;
2354;;;;;;;;;;;;;
2355;;;;;;;;;;;;;
2356;;;;;;;;;;;;;
2357;;;;;;;;;;;;;
2358;;;;;;;;;;;;;
2359;;;;;;;;;;;;;
2360;;;;;;;;;;;;;
2361;;;;;;;;;;;;;
2362;;;;;;;;;;;;;
2363;;;;;;;;;;;;;
2364;;;;;;;;;;;;;
2365;;;;;;;;;;;;;
2366;;;;;;;;;;;;;
2367;;;;;;;;;;;;;
2368;;;;;;;;;;;;;
2369;;;;;;;;;;;;;
2370;;;;;;;;;;;;;
2371;;;;;;;;;;;;;
2372;;;;;;;;;;;;;
2373;;;;;;;;;;;;;
2374;;;;;;;;;;;;;
2375;;;;;;;;;;;;;
2376;;;;;;;;;;;;;
2377;;;;;;;;;;;;;
2378;;;;;;;;;;;;;
2379;;;;;;;;;;;;;
2380;;;;;;;;;;;;;
2381;;;;;;;;;;;;;
2382;;;;;;;;;;;;;
2383;;;;;;;;;;;;;
2384;;;;;;;;;;;;;
2385;;;;;;;;;;;;;
2386;;;;;;;;;;;;;
2387;;;;;;;;;;;;;
2388;;;;;;;;;;;;;
2389;;;;;;;;;;;;;
2390;;;;;;;;;;;;;
2391;;;;;;;;;;;;;
2392;;;;;;;;;;;;;
2393;;;;;;;;;;;;;
2394;;;;;;;;;;;;;
2395;;;;;;;;;;;;;
2396;;;;;;;;;;;;;
2397;;;;;;;;;;;;;
2398;;;;;;;;;;;;;
2399;;;;;;;;;;;;;
2400;;;;;;;;;;;;;
2401;;;;;;;;;;;;;
2402;;;;;;;;;;;;;
2403;;;;;;;;;;;;;
2404;;;;;;;;;;;;;
2405;;;;;;;;;;;;;
2406;;;;;;;;;;;;;
2407;;;;;;;;;;;;;
2408;;;;;;;;;;;;;
2409;;;;;;;;;;;;;
2410;;;;;;;;;;;;;
2411;;;;;;;;;;;;;
2412;;;;;;;;;;;;;
2413;;;;;;;;;;;;;
2414;;;;;;;;;;;;;
2415;;;;;;;;;;;;;
2416;;;;;;;;;;;;;
2417;;;;;;;;;;;;;
2418;;;;;;;;;;;;;
2419;;;;;;;;;;;;;
2420;;;;;;;;;;;;;
2421;;;;;;;;;;;;;
2422;;;;;;;;;;;;;
2423;;;;;;;;;;;;;
2424;;;;;;;;;;;;;
2425;;;;;;;;;;;;;
2426;;;;;;;;;;;;;
2427;;;;;;;;;;;;;
2428;;;;;;;;;;;;;
2429;;;;;;;;;;;;;
2430;;;;;;;;;;;;;
2431;;;;;;;;;;;;;
2432;;;;;;;;;;;;;
2433;;;;;;;;;;;;;
2434;;;;;;;;;;;;;
2435;;;;;;;;;;;;;
2436;;;;;;;;;;;;;
2437;;;;;;;;;;;;;
2438;;;;;;;;;;;;;
2439;;;;;;;;;;;;;
2440;;;;;;;;;;;;;
2441;;;;;;;;;;;;;
2442;;;;;;;;;;;;;
2443;;;;;;;;;;;;;
2444;;;;;;;;;;;;;
2445;;;;;;;;;;;;;
2446;;;;;;;;;;;;;
2447;;;;;;;;;;;;;
2448;;;;;;;;;;;;;
2449;;;;;;;;;;;;;
2450;;;;;;;;;;;;;
2451;;;;;;;;;;;;;
2452;;;;;;;;;;;;;
2453;;;;;;;;;;;;;
2454;;;;;;;;;;;;;
2455;;;;;;;;;;;;;
2456;;;;;;;;;;;;;
2457;;;;;;;;;;;;;
2458;;;;;;;;;;;;;
2459;;;;;;;;;;;;;
2460;;;;;;;;;;;;;
2461;;;;;;;;;;;;;
2462;;;;;;;;;;;;;
2463;;;;;;;;;;;;;
2464;;;;;;;;;;;;;
2465;;;;;;;;;;;;;
2466;;;;;;;;;;;;;
2467;;;;;;;;;;;;;
2468;;;;;;;;;;;;;
2469;;;;;;;;;;;;;
2470;;;;;;;;;;;;;
2471;;;;;;;;;;;;;
2472;;;;;;;;;;;;;
2473;;;;;;;;;;;;;
2474;;;;;;;;;;;;;
2475;;;;;;;;;;;;;
2476;;;;;;;;;;;;;
2477;;;;;;;;;;;;;
2478;;;;;;;;;;;;;
2479;;;;;;;;;;;;;
2480;;;;;;;;;;;;;
2481;;;;;;;;;;;;;
2482;;;;;;;;;;;;;
2483;;;;;;;;;;;;;
2484;;;;;;;;;;;;;
2485;;;;;;;;;;;;;
2486;;;;;;;;;;;;;
2487;;;;;;;;;;;;;
2488;;;;;;;;;;;;;
2489;;;;;;;;;;;;;
2490;;;;;;;;;;;;;
2491;;;;;;;;;;;;;
2492;;;;;;;;;;;;;
2493;;;;;;;;;;;;;
2494;;;;;;;;;;;;;
2495;;;;;;;;;;;;;
