
Index;Column 2 (V);Column 3 (V);Column 4 (V);Column 5 (V);Column 6 (V/s);Column 7 (V);Time (s);Potential applied (V);WE(1).Current (A);WE(1).Potential (V);Scan;Column 13 (RPM);ω (rad/s)
1;0;0.01;-1;-0.01;0.01;-0.00244;8275.14886410726;-0.0146484375;1.70684814453125E-06;-0.01439208984375;3;750;78.5398163397448
2;;;;;;;8275.39300510664;-0.01708984375;1.53594970703125E-06;-0.01680908203125;3;;
3;;;;;;;8275.63714610602;-0.01953125;1.3824462890625E-06;-0.01922607421875;3;;
4;;;;;;;8275.88128710541;-0.02197265625;1.25823974609375E-06;-0.0216796875;3;;
5;;;;;;;8276.12542810479;-0.0244140625;1.12274169921875E-06;-0.0241302490234375;3;;
6;;;;;;;8276.36956910418;-0.02685546875;9.954833984375E-07;-0.0266021728515625;3;;
7;;;;;;;8276.61371010356;-0.029296875;8.6761474609375E-07;-0.0289520263671875;3;;
8;;;;;;;8276.85785110294;-0.03173828125;7.6202392578125E-07;-0.03143310546875;3;;
9;;;;;;;8277.10199210233;-0.0341796875;6.6131591796875E-07;-0.0338775634765625;3;;
10;;;;;;;8277.34613310171;-0.03662109375;5.694580078125E-07;-0.0363372802734375;3;;
11;;;;;;;8277.59027410109;-0.0390625;4.7393798828125E-07;-0.038726806640625;3;;
12;;;;;;;8277.83441510048;-0.04150390625;3.558349609375E-07;-0.0412200927734375;3;;
13;;;;;;;8278.07855609986;-0.0439453125;2.5604248046875E-07;-0.0435821533203125;3;;
14;;;;;;;8278.32269709924;-0.04638671875;1.6204833984375E-07;-0.046112060546875;3;;
15;;;;;;;8278.56683809863;-0.048828125;8.60595703125E-08;-0.0485565185546875;3;;
16;;;;;;;8278.81097909801;-0.05126953125;5.79833984375E-09;-0.0511474609375;3;;
17;;;;;;;8279.0551200974;-0.0537109375;-8.1787109375E-08;-0.053497314453125;3;;
18;;;;;;;8279.29926109678;-0.05615234375;-1.7822265625E-07;-0.055908203125;3;;
19;;;;;;;8279.54340209616;-0.05859375;-2.3956298828125E-07;-0.05828857421875;3;;
20;;;;;;;8279.78754309555;-0.06103515625;-3.3721923828125E-07;-0.060638427734375;3;;
21;;;;;;;8280.03168409493;-0.0634765625;-4.5684814453125E-07;-0.06317138671875;3;;
22;;;;;;;8280.27582509431;-0.06591796875;-5.487060546875E-07;-0.065643310546875;3;;
23;;;;;;;8280.5199660937;-0.068359375;-6.2469482421875E-07;-0.068145751953125;3;;
24;;;;;;;8280.76410709308;-0.07080078125;-7.220458984375E-07;-0.070404052734375;3;;
25;;;;;;;8281.00824809246;-0.0732421875;-8.3740234375E-07;-0.072906494140625;3;;
26;;;;;;;8281.25238909185;-0.07568359375;-9.4024658203125E-07;-0.075408935546875;3;;
27;;;;;;;8281.49653009123;-0.078125;-1.048583984375E-06;-0.077728271484375;3;;
28;;;;;;;8281.74067109061;-0.08056640625;-1.175537109375E-06;-0.080322265625;3;;
29;;;;;;;8281.98481209;-0.0830078125;-1.28936767578125E-06;-0.0826416015625;3;;
30;;;;;;;8282.22895308938;-0.08544921875;-1.4068603515625E-06;-0.085052490234375;3;;
31;;;;;;;8282.47309408877;-0.087890625;-1.54876708984375E-06;-0.087493896484375;3;;
32;;;;;;;8282.71723508815;-0.09033203125;-1.69830322265625E-06;-0.08984375;3;;
33;;;;;;;8282.96137608753;-0.0927734375;-1.8359375E-06;-0.092254638671875;3;;
34;;;;;;;8283.20551708692;-0.09521484375;-1.99676513671875E-06;-0.094635009765625;3;;
35;;;;;;;8283.4496580863;-0.09765625;-2.158203125E-06;-0.09716796875;3;;
36;;;;;;;8283.69379908568;-0.10009765625;-2.32147216796875E-06;-0.0994873046875;3;;
37;;;;;;;8283.93794008507;-0.1025390625;-2.51312255859375E-06;-0.101898193359375;3;;
38;;;;;;;8284.18208108445;-0.10498046875;-2.72186279296875E-06;-0.104339599609375;3;;
39;;;;;;;8284.42622208383;-0.107421875;-2.92083740234375E-06;-0.106689453125;3;;
40;;;;;;;8284.67036308322;-0.10986328125;-3.14971923828125E-06;-0.109161376953125;3;;
41;;;;;;;8284.9145040826;-0.1123046875;-3.394775390625E-06;-0.11199951171875;3;;
42;;;;;;;8285.15864508199;-0.11474609375;-3.64990234375E-06;-0.11444091796875;3;;
43;;;;;;;8285.40278608137;-0.1171875;-3.9306640625E-06;-0.116790771484375;3;;
44;;;;;;;8285.64692708075;-0.11962890625;-4.2083740234375E-06;-0.11920166015625;3;;
45;;;;;;;8285.89106808014;-0.1220703125;-4.534912109375E-06;-0.121673583984375;3;;
46;;;;;;;8286.13520907952;-0.12451171875;-4.8187255859375E-06;-0.124114990234375;3;;
47;;;;;;;8286.3793500789;-0.126953125;-5.17578125E-06;-0.12652587890625;3;;
48;;;;;;;8286.62349107829;-0.12939453125;-5.548095703125E-06;-0.128936767578125;3;;
49;;;;;;;8286.86763207767;-0.1318359375;-5.9600830078125E-06;-0.13140869140625;3;;
50;;;;;;;8287.11177307705;-0.13427734375;-6.3507080078125E-06;-0.133819580078125;3;;
51;;;;;;;8287.35591407644;-0.13671875;-6.8328857421875E-06;-0.136260986328125;3;;
52;;;;;;;8287.60005507582;-0.13916015625;-7.293701171875E-06;-0.138671875;3;;
53;;;;;;;8287.8441960752;-0.1416015625;-7.794189453125E-06;-0.14105224609375;3;;
54;;;;;;;8288.08833707459;-0.14404296875;-8.33740234375E-06;-0.14361572265625;3;;
55;;;;;;;8288.33247807397;-0.146484375;-8.9447021484375E-06;-0.14599609375;3;;
56;;;;;;;8288.57661907336;-0.14892578125;-9.4970703125E-06;-0.1484375;3;;
57;;;;;;;8288.82076007274;-0.1513671875;-1.0174560546875E-05;-0.15087890625;3;;
58;;;;;;;8289.06490107212;-0.15380859375;-1.08489990234375E-05;-0.153289794921875;3;;
59;;;;;;;8289.30904207151;-0.15625;-1.1614990234375E-05;-0.155670166015625;3;;
60;;;;;;;8289.55318307089;-0.15869140625;-1.23291015625E-05;-0.158111572265625;3;;
61;;;;;;;8289.79732407027;-0.1611328125;-1.3189697265625E-05;-0.16058349609375;3;;
62;;;;;;;8290.04146506966;-0.16357421875;-1.40289306640625E-05;-0.162994384765625;3;;
63;;;;;;;8290.28560606904;-0.166015625;-1.49566650390625E-05;-0.16546630859375;3;;
64;;;;;;;8290.52974706842;-0.16845703125;-1.5948486328125E-05;-0.167877197265625;3;;
65;;;;;;;8290.77388806781;-0.1708984375;-1.70166015625E-05;-0.170257568359375;3;;
66;;;;;;;8291.01802906719;-0.17333984375;-1.81396484375E-05;-0.172698974609375;3;;
67;;;;;;;8291.26217006658;-0.17578125;-1.92901611328125E-05;-0.175079345703125;3;;
68;;;;;;;8291.50631106596;-0.17822265625;-2.0556640625E-05;-0.177490234375;3;;
69;;;;;;;8291.75045206534;-0.1806640625;-2.1905517578125E-05;-0.179931640625;3;;
70;;;;;;;8291.99459306473;-0.18310546875;-2.33184814453125E-05;-0.182403564453125;3;;
71;;;;;;;8292.23873406411;-0.185546875;-2.48077392578125E-05;-0.184722900390625;3;;
72;;;;;;;8292.48287506349;-0.18798828125;-2.64068603515625E-05;-0.187164306640625;3;;
73;;;;;;;8292.72701606288;-0.1904296875;-2.808837890625E-05;-0.189666748046875;3;;
74;;;;;;;8292.97115706226;-0.19287109375;-2.987060546875E-05;-0.1920166015625;3;;
75;;;;;;;8293.21529806164;-0.1953125;-3.1744384765625E-05;-0.194427490234375;3;;
76;;;;;;;8293.45943906103;-0.19775390625;-3.37066650390625E-05;-0.197235107421875;3;;
77;;;;;;;8293.70358006041;-0.2001953125;-3.58367919921875E-05;-0.19970703125;3;;
78;;;;;;;8293.94772105979;-0.20263671875;-3.807373046875E-05;-0.202056884765625;3;;
79;;;;;;;8294.19186205918;-0.205078125;-4.04327392578125E-05;-0.204498291015625;3;;
80;;;;;;;8294.43600305856;-0.20751953125;-4.29412841796875E-05;-0.2069091796875;3;;
81;;;;;;;8294.68014405795;-0.2099609375;-4.559326171875E-05;-0.209381103515625;3;;
82;;;;;;;8294.92428505733;-0.21240234375;-4.8468017578125E-05;-0.211822509765625;3;;
83;;;;;;;8295.16842605671;-0.21484375;-5.1483154296875E-05;-0.214263916015625;3;;
84;;;;;;;8295.4125670561;-0.21728515625;-5.462646484375E-05;-0.216705322265625;3;;
85;;;;;;;8295.65670805548;-0.2197265625;-5.8074951171875E-05;-0.219207763671875;3;;
86;;;;;;;8295.90084905486;-0.22216796875;-6.170654296875E-05;-0.221588134765625;3;;
87;;;;;;;8296.14499005425;-0.224609375;-6.5521240234375E-05;-0.224029541015625;3;;
88;;;;;;;8296.38913105363;-0.22705078125;-6.9580078125E-05;-0.226409912109375;3;;
89;;;;;;;8296.63327205302;-0.2294921875;-7.391357421875E-05;-0.22894287109375;3;;
90;;;;;;;8296.8774130524;-0.23193359375;-7.8460693359375E-05;-0.23126220703125;3;;
91;;;;;;;8297.12155405178;-0.234375;-8.3282470703125E-05;-0.233795166015625;3;;
92;;;;;;;8297.36569505116;-0.23681640625;-8.8409423828125E-05;-0.23614501953125;3;;
93;;;;;;;8297.60983605055;-0.2392578125;-9.375E-05;-0.23858642578125;3;;
94;;;;;;;8297.85397704993;-0.24169921875;-9.942626953125E-05;-0.241058349609375;3;;
95;;;;;;;8298.09811804932;-0.244140625;-0.000105438232421875;-0.24346923828125;3;;
96;;;;;;;8298.3422590487;-0.24658203125;-0.000111724853515625;-0.245849609375;3;;
97;;;;;;;8298.58640004808;-0.2490234375;-0.000118377685546875;-0.24835205078125;3;;
98;;;;;;;8298.83054104747;-0.25146484375;-0.0001253662109375;-0.250732421875;3;;
99;;;;;;;8299.07468204685;-0.25390625;-0.000132781982421875;-0.253143310546875;3;;
100;;;;;;;8299.31882304623;-0.25634765625;-0.000140594482421875;-0.255615234375;3;;
101;;;;;;;8299.56296404562;-0.2587890625;-0.00014886474609375;-0.258087158203125;3;;
102;;;;;;;8299.807105045;-0.26123046875;-0.000157562255859375;-0.26043701171875;3;;
103;;;;;;;8300.05124604438;-0.263671875;-0.00016668701171875;-0.262847900390625;3;;
104;;;;;;;8300.29538704377;-0.26611328125;-0.000176300048828125;-0.265289306640625;3;;
105;;;;;;;8300.53952804315;-0.2685546875;-0.000186431884765625;-0.2677001953125;3;;
106;;;;;;;8300.78366904254;-0.27099609375;-0.000197021484375;-0.27020263671875;3;;
107;;;;;;;8301.02781004192;-0.2734375;-0.0002081298828125;-0.2725830078125;3;;
108;;;;;;;8301.2719510413;-0.27587890625;-0.00021954345703125;-0.274993896484375;3;;
109;;;;;;;8301.51609204069;-0.2783203125;-0.000231536865234375;-0.277374267578125;3;;
110;;;;;;;8301.76023304007;-0.28076171875;-0.0002440185546875;-0.279815673828125;3;;
111;;;;;;;8302.00437403945;-0.283203125;-0.000256927490234375;-0.2822265625;3;;
112;;;;;;;8302.24851503884;-0.28564453125;-0.000270233154296875;-0.28460693359375;3;;
113;;;;;;;8302.49265603822;-0.2880859375;-0.000283966064453125;-0.287017822265625;3;;
114;;;;;;;8302.73679703761;-0.29052734375;-0.000298095703125;-0.289459228515625;3;;
115;;;;;;;8302.98093803699;-0.29296875;-0.00031268310546875;-0.2918701171875;3;;
116;;;;;;;8303.22507903637;-0.29541015625;-0.000327606201171875;-0.294708251953125;3;;
117;;;;;;;8303.46922003575;-0.2978515625;-0.0003428955078125;-0.297149658203125;3;;
118;;;;;;;8303.71336103514;-0.30029296875;-0.000358551025390625;-0.29962158203125;3;;
119;;;;;;;8303.95750203452;-0.302734375;-0.000374481201171875;-0.30206298828125;3;;
120;;;;;;;8304.20164303391;-0.30517578125;-0.00039080810546875;-0.304443359375;3;;
121;;;;;;;8304.44578403329;-0.3076171875;-0.000407470703125;-0.306884765625;3;;
122;;;;;;;8304.68992503267;-0.31005859375;-0.000424407958984375;-0.309356689453125;3;;
123;;;;;;;8304.93406603206;-0.3125;-0.000441497802734375;-0.311798095703125;3;;
124;;;;;;;8305.17820703144;-0.31494140625;-0.000458984375;-0.314208984375;3;;
125;;;;;;;8305.42234803082;-0.3173828125;-0.0004764404296875;-0.316650390625;3;;
126;;;;;;;8305.66648903021;-0.31982421875;-0.00049407958984375;-0.31903076171875;3;;
127;;;;;;;8305.91063002959;-0.322265625;-0.000511474609375;-0.321563720703125;3;;
128;;;;;;;8306.15477102897;-0.32470703125;-0.0005291748046875;-0.323944091796875;3;;
129;;;;;;;8306.39891202836;-0.3271484375;-0.00054656982421875;-0.326446533203125;3;;
130;;;;;;;8306.64305302774;-0.32958984375;-0.00056396484375;-0.328826904296875;3;;
131;;;;;;;8306.88719402713;-0.33203125;-0.00058135986328125;-0.33123779296875;3;;
132;;;;;;;8307.13133502651;-0.33447265625;-0.00059814453125;-0.33380126953125;3;;
133;;;;;;;8307.37547602589;-0.3369140625;-0.0006146240234375;-0.336151123046875;3;;
134;;;;;;;8307.61961702528;-0.33935546875;-0.00063079833984375;-0.33856201171875;3;;
135;;;;;;;8307.86375802466;-0.341796875;-0.0006463623046875;-0.341064453125;3;;
136;;;;;;;8308.10789902404;-0.34423828125;-0.00066162109375;-0.343414306640625;3;;
137;;;;;;;8308.35204002343;-0.3466796875;-0.00067626953125;-0.345916748046875;3;;
138;;;;;;;8308.59618102281;-0.34912109375;-0.0006903076171875;-0.348358154296875;3;;
139;;;;;;;8308.8403220222;-0.3515625;-0.0007037353515625;-0.35076904296875;3;;
140;;;;;;;8309.08446302158;-0.35400390625;-0.00071624755859375;-0.353179931640625;3;;
141;;;;;;;8309.32860402096;-0.3564453125;-0.00072845458984375;-0.355621337890625;3;;
142;;;;;;;8309.57274502034;-0.35888671875;-0.00073974609375;-0.35809326171875;3;;
143;;;;;;;8309.81688601973;-0.361328125;-0.00075042724609375;-0.360443115234375;3;;
144;;;;;;;8310.06102701911;-0.36376953125;-0.0007598876953125;-0.3629150390625;3;;
145;;;;;;;8310.3051680185;-0.3662109375;-0.00076873779296875;-0.365325927734375;3;;
146;;;;;;;8310.54930901788;-0.36865234375;-0.00077667236328125;-0.3677978515625;3;;
147;;;;;;;8310.79345001726;-0.37109375;-0.00078369140625;-0.370208740234375;3;;
148;;;;;;;8311.03759101665;-0.37353515625;-0.000789794921875;-0.3726806640625;3;;
149;;;;;;;8311.28173201603;-0.3759765625;-0.00079498291015625;-0.37506103515625;3;;
150;;;;;;;8311.52587301541;-0.37841796875;-0.0007989501953125;-0.377593994140625;3;;
151;;;;;;;8311.7700140148;-0.380859375;-0.000802001953125;-0.379974365234375;3;;
152;;;;;;;8312.01415501418;-0.38330078125;-0.000804443359375;-0.382415771484375;3;;
153;;;;;;;8312.25829601357;-0.3857421875;-0.00080596923828125;-0.384857177734375;3;;
154;;;;;;;8312.50243701295;-0.38818359375;-0.000806884765625;-0.387237548828125;3;;
155;;;;;;;8312.74657801233;-0.390625;-0.00080718994140625;-0.3897705078125;3;;
156;;;;;;;8312.99071901172;-0.39306640625;-0.000806884765625;-0.39215087890625;3;;
157;;;;;;;8313.2348600111;-0.3955078125;-0.00080596923828125;-0.3946533203125;3;;
158;;;;;;;8313.47900101048;-0.39794921875;-0.0008050537109375;-0.397064208984375;3;;
159;;;;;;;8313.72314200987;-0.400390625;-0.0008038330078125;-0.399505615234375;3;;
160;;;;;;;8313.96728300925;-0.40283203125;-0.00080291748046875;-0.401947021484375;3;;
161;;;;;;;8314.21142400863;-0.4052734375;-0.000802001953125;-0.404388427734375;3;;
162;;;;;;;8314.45556500802;-0.40771484375;-0.0008013916015625;-0.40679931640625;3;;
163;;;;;;;8314.6997060074;-0.41015625;-0.00080047607421875;-0.40924072265625;3;;
164;;;;;;;8314.94384700679;-0.41259765625;-0.0008001708984375;-0.411590576171875;3;;
165;;;;;;;8315.18798800617;-0.4150390625;-0.0008001708984375;-0.414093017578125;3;;
166;;;;;;;8315.43212900555;-0.41748046875;-0.0008001708984375;-0.41650390625;3;;
167;;;;;;;8315.67627000493;-0.419921875;-0.00080047607421875;-0.41900634765625;3;;
168;;;;;;;8315.92041100432;-0.42236328125;-0.00080108642578125;-0.42144775390625;3;;
169;;;;;;;8316.1645520037;-0.4248046875;-0.000802001953125;-0.42388916015625;3;;
170;;;;;;;8316.40869300309;-0.42724609375;-0.0008026123046875;-0.42633056640625;3;;
171;;;;;;;8316.65283400247;-0.4296875;-0.00080352783203125;-0.428741455078125;3;;
172;;;;;;;8316.89697500185;-0.43212890625;-0.00080474853515625;-0.431182861328125;3;;
173;;;;;;;8317.14111600124;-0.4345703125;-0.0008056640625;-0.43359375;3;;
174;;;;;;;8317.38525700062;-0.43701171875;-0.00080718994140625;-0.43597412109375;3;;
175;;;;;;;8317.629398;-0.439453125;-0.00080810546875;-0.4384765625;3;;
176;;;;;;;8317.87353899939;-0.44189453125;-0.00080902099609375;-0.440887451171875;3;;
177;;;;;;;8318.11767999877;-0.4443359375;-0.0008099365234375;-0.443328857421875;3;;
178;;;;;;;8318.36182099816;-0.44677734375;-0.0008111572265625;-0.44573974609375;3;;
179;;;;;;;8318.60596199754;-0.44921875;-0.0008123779296875;-0.448211669921875;3;;
180;;;;;;;8318.85010299692;-0.45166015625;-0.00081390380859375;-0.450714111328125;3;;
181;;;;;;;8319.09424399631;-0.4541015625;-0.00081512451171875;-0.453125;3;;
182;;;;;;;8319.33838499569;-0.45654296875;-0.0008160400390625;-0.455535888671875;3;;
183;;;;;;;8319.58252599507;-0.458984375;-0.0008172607421875;-0.4580078125;3;;
184;;;;;;;8319.82666699446;-0.46142578125;-0.00081878662109375;-0.46044921875;3;;
185;;;;;;;8320.07080799384;-0.4638671875;-0.0008203125;-0.462799072265625;3;;
186;;;;;;;8320.31494899322;-0.46630859375;-0.00082183837890625;-0.46533203125;3;;
187;;;;;;;8320.55908999261;-0.46875;-0.0008233642578125;-0.467742919921875;3;;
188;;;;;;;8320.80323099199;-0.47119140625;-0.0008251953125;-0.470184326171875;3;;
189;;;;;;;8321.04737199138;-0.4736328125;-0.000826416015625;-0.472625732421875;3;;
190;;;;;;;8321.29151299076;-0.47607421875;-0.00082733154296875;-0.475006103515625;3;;
191;;;;;;;8321.53565399014;-0.478515625;-0.0008294677734375;-0.4774169921875;3;;
192;;;;;;;8321.77979498952;-0.48095703125;-0.0008306884765625;-0.479949951171875;3;;
193;;;;;;;8322.02393598891;-0.4833984375;-0.00083099365234375;-0.482330322265625;3;;
194;;;;;;;8322.26807698829;-0.48583984375;-0.00083160400390625;-0.484710693359375;3;;
195;;;;;;;8322.51221798768;-0.48828125;-0.0008331298828125;-0.48724365234375;3;;
196;;;;;;;8322.75635898706;-0.49072265625;-0.000833740234375;-0.489715576171875;3;;
197;;;;;;;8323.00049998644;-0.4931640625;-0.0008349609375;-0.4920654296875;3;;
198;;;;;;;8323.24464098583;-0.49560546875;-0.000836181640625;-0.49456787109375;3;;
199;;;;;;;8323.48878198521;-0.498046875;-0.00083709716796875;-0.49700927734375;3;;
200;;;;;;;8323.73292298459;-0.50048828125;-0.00083831787109375;-0.49945068359375;3;;
201;;;;;;;8323.97706398398;-0.5029296875;-0.00083953857421875;-0.5018310546875;3;;
202;;;;;;;8324.22120498336;-0.50537109375;-0.000841064453125;-0.50433349609375;3;;
203;;;;;;;8324.46534598275;-0.5078125;-0.00084197998046875;-0.50677490234375;3;;
204;;;;;;;8324.70948698213;-0.51025390625;-0.00084320068359375;-0.509124755859375;3;;
205;;;;;;;8324.95362798151;-0.5126953125;-0.0008441162109375;-0.5115966796875;3;;
206;;;;;;;8325.1977689809;-0.51513671875;-0.0008447265625;-0.5140380859375;3;;
207;;;;;;;8325.44190998028;-0.517578125;-0.000845947265625;-0.5164794921875;3;;
208;;;;;;;8325.68605097966;-0.52001953125;-0.00084747314453125;-0.518951416015625;3;;
209;;;;;;;8325.93019197905;-0.5224609375;-0.00084869384765625;-0.521331787109375;3;;
210;;;;;;;8326.17433297843;-0.52490234375;-0.00084930419921875;-0.5238037109375;3;;
211;;;;;;;8326.41847397781;-0.52734375;-0.00084930419921875;-0.5262451171875;3;;
212;;;;;;;8326.6626149772;-0.52978515625;-0.000850830078125;-0.528656005859375;3;;
213;;;;;;;8326.90675597658;-0.5322265625;-0.00085205078125;-0.531097412109375;3;;
214;;;;;;;8327.15089697597;-0.53466796875;-0.00085235595703125;-0.533538818359375;3;;
215;;;;;;;8327.39503797535;-0.537109375;-0.00085235595703125;-0.535980224609375;3;;
216;;;;;;;8327.63917897473;-0.53955078125;-0.0008526611328125;-0.53839111328125;3;;
217;;;;;;;8327.88331997412;-0.5419921875;-0.000853271484375;-0.54083251953125;3;;
218;;;;;;;8328.1274609735;-0.54443359375;-0.00085357666015625;-0.5433349609375;3;;
219;;;;;;;8328.37160197288;-0.546875;-0.0008544921875;-0.5457763671875;3;;
220;;;;;;;8328.61574297227;-0.54931640625;-0.0008551025390625;-0.548126220703125;3;;
221;;;;;;;8328.85988397165;-0.5517578125;-0.00085601806640625;-0.550628662109375;3;;
222;;;;;;;8329.10402497103;-0.55419921875;-0.00085723876953125;-0.55303955078125;3;;
223;;;;;;;8329.34816597042;-0.556640625;-0.00085845947265625;-0.555419921875;3;;
224;;;;;;;8329.5923069698;-0.55908203125;-0.00085906982421875;-0.557891845703125;3;;
225;;;;;;;8329.83644796918;-0.5615234375;-0.00085906982421875;-0.56036376953125;3;;
226;;;;;;;8330.08058896857;-0.56396484375;-0.00086029052734375;-0.56280517578125;3;;
227;;;;;;;8330.32472996795;-0.56640625;-0.0008612060546875;-0.565216064453125;3;;
228;;;;;;;8330.56887096734;-0.56884765625;-0.00086212158203125;-0.567657470703125;3;;
229;;;;;;;8330.81301196672;-0.5712890625;-0.0008624267578125;-0.570037841796875;3;;
230;;;;;;;8331.0571529661;-0.57373046875;-0.00086273193359375;-0.57257080078125;3;;
231;;;;;;;8331.30129396549;-0.576171875;-0.00086273193359375;-0.574981689453125;3;;
232;;;;;;;8331.54543496487;-0.57861328125;-0.000863037109375;-0.577392578125;3;;
233;;;;;;;8331.78957596425;-0.5810546875;-0.0008636474609375;-0.579864501953125;3;;
234;;;;;;;8332.03371696364;-0.58349609375;-0.0008642578125;-0.582305908203125;3;;
235;;;;;;;8332.27785796302;-0.5859375;-0.0008648681640625;-0.584686279296875;3;;
236;;;;;;;8332.5219989624;-0.58837890625;-0.00086456298828125;-0.587188720703125;3;;
237;;;;;;;8332.76613996179;-0.5908203125;-0.00086456298828125;-0.589569091796875;3;;
238;;;;;;;8333.01028096117;-0.59326171875;-0.0008642578125;-0.592041015625;3;;
239;;;;;;;8333.25442196056;-0.595703125;-0.0008648681640625;-0.594451904296875;3;;
240;;;;;;;8333.49856295994;-0.59814453125;-0.00086517333984375;-0.59686279296875;3;;
241;;;;;;;8333.74270395932;-0.6005859375;-0.00086578369140625;-0.59930419921875;3;;
242;;;;;;;8333.98684495871;-0.60302734375;-0.0008660888671875;-0.601776123046875;3;;
243;;;;;;;8334.23098595809;-0.60546875;-0.00086669921875;-0.604156494140625;3;;
244;;;;;;;8334.47512695747;-0.60791015625;-0.0008673095703125;-0.60662841796875;3;;
245;;;;;;;8334.71926795686;-0.6103515625;-0.00086700439453125;-0.609100341796875;3;;
246;;;;;;;8334.96340895624;-0.61279296875;-0.000867919921875;-0.611572265625;3;;
247;;;;;;;8335.20754995562;-0.615234375;-0.000867919921875;-0.613983154296875;3;;
248;;;;;;;8335.45169095501;-0.61767578125;-0.00086761474609375;-0.616363525390625;3;;
249;;;;;;;8335.69583195439;-0.6201171875;-0.00086761474609375;-0.618896484375;3;;
250;;;;;;;8335.93997295377;-0.62255859375;-0.000867919921875;-0.621307373046875;3;;
251;;;;;;;8336.18411395316;-0.625;-0.00086761474609375;-0.623687744140625;3;;
252;;;;;;;8336.42825495254;-0.62744140625;-0.00086761474609375;-0.62615966796875;3;;
253;;;;;;;8336.67239595193;-0.6298828125;-0.00086761474609375;-0.628509521484375;3;;
254;;;;;;;8336.91653695131;-0.63232421875;-0.00086700439453125;-0.6309814453125;3;;
255;;;;;;;8337.16067795069;-0.634765625;-0.00086639404296875;-0.633514404296875;3;;
256;;;;;;;8337.40481895008;-0.63720703125;-0.0008673095703125;-0.63592529296875;3;;
257;;;;;;;8337.64895994946;-0.6396484375;-0.00086517333984375;-0.63836669921875;3;;
258;;;;;;;8337.89310094884;-0.64208984375;-0.0008648681640625;-0.64080810546875;3;;
259;;;;;;;8338.13724194823;-0.64453125;-0.00086395263671875;-0.643218994140625;3;;
260;;;;;;;8338.38138294761;-0.64697265625;-0.000863037109375;-0.64569091796875;3;;
261;;;;;;;8338.62552394699;-0.6494140625;-0.0008648681640625;-0.648101806640625;3;;
262;;;;;;;8338.86966494638;-0.65185546875;-0.0008636474609375;-0.650604248046875;3;;
263;;;;;;;8339.11380594576;-0.654296875;-0.00086273193359375;-0.653045654296875;3;;
264;;;;;;;8339.35794694515;-0.65673828125;-0.00086334228515625;-0.655517578125;3;;
265;;;;;;;8339.60208794453;-0.6591796875;-0.00086456298828125;-0.657867431640625;3;;
266;;;;;;;8339.84622894391;-0.66162109375;-0.00086273193359375;-0.66033935546875;3;;
267;;;;;;;8340.0903699433;-0.6640625;-0.000863037109375;-0.662811279296875;3;;
268;;;;;;;8340.33451094268;-0.66650390625;-0.00086395263671875;-0.665191650390625;3;;
269;;;;;;;8340.57865194206;-0.6689453125;-0.000863037109375;-0.667633056640625;3;;
270;;;;;;;8340.82279294145;-0.67138671875;-0.00086181640625;-0.67010498046875;3;;
271;;;;;;;8341.06693394083;-0.673828125;-0.00086181640625;-0.672515869140625;3;;
272;;;;;;;8341.31107494021;-0.67626953125;-0.00086151123046875;-0.67498779296875;3;;
273;;;;;;;8341.5552159396;-0.6787109375;-0.00086090087890625;-0.67742919921875;3;;
274;;;;;;;8341.79935693898;-0.68115234375;-0.000859375;-0.67987060546875;3;;
275;;;;;;;8342.04349793836;-0.68359375;-0.000859375;-0.68231201171875;3;;
276;;;;;;;8342.28763893775;-0.68603515625;-0.0008587646484375;-0.6846923828125;3;;
277;;;;;;;8342.53177993713;-0.6884765625;-0.000858154296875;-0.687225341796875;3;;
278;;;;;;;8342.77592093652;-0.69091796875;-0.0008575439453125;-0.689605712890625;3;;
279;;;;;;;8343.0200619359;-0.693359375;-0.0008563232421875;-0.692047119140625;3;;
280;;;;;;;8343.26420293528;-0.69580078125;-0.0008563232421875;-0.694488525390625;3;;
281;;;;;;;8343.50834393467;-0.6982421875;-0.0008563232421875;-0.696929931640625;3;;
282;;;;;;;8343.75248493405;-0.70068359375;-0.00085601806640625;-0.69940185546875;3;;
283;;;;;;;8343.99662593343;-0.703125;-0.0008563232421875;-0.7017822265625;3;;
284;;;;;;;8344.24076693282;-0.70556640625;-0.00085601806640625;-0.704254150390625;3;;
285;;;;;;;8344.4849079322;-0.7080078125;-0.00085479736328125;-0.7066650390625;3;;
286;;;;;;;8344.72904893158;-0.71044921875;-0.0008551025390625;-0.7091064453125;3;;
287;;;;;;;8344.97318993097;-0.712890625;-0.00085540771484375;-0.71160888671875;3;;
288;;;;;;;8345.21733093035;-0.71533203125;-0.00085479736328125;-0.714019775390625;3;;
289;;;;;;;8345.46147192974;-0.7177734375;-0.0008544921875;-0.716461181640625;3;;
290;;;;;;;8345.70561292912;-0.72021484375;-0.000853271484375;-0.7188720703125;3;;
291;;;;;;;8345.9497539285;-0.72265625;-0.0008526611328125;-0.721343994140625;3;;
292;;;;;;;8346.19389492789;-0.72509765625;-0.00085235595703125;-0.723846435546875;3;;
293;;;;;;;8346.43803592727;-0.7275390625;-0.0008526611328125;-0.726226806640625;3;;
294;;;;;;;8346.68217692665;-0.72998046875;-0.0008526611328125;-0.728729248046875;3;;
295;;;;;;;8346.92631792604;-0.732421875;-0.00085205078125;-0.731109619140625;3;;
296;;;;;;;8347.17045892542;-0.73486328125;-0.00085113525390625;-0.733612060546875;3;;
297;;;;;;;8347.4145999248;-0.7373046875;-0.0008502197265625;-0.73602294921875;3;;
298;;;;;;;8347.65874092419;-0.73974609375;-0.000850830078125;-0.738433837890625;3;;
299;;;;;;;8347.90288192357;-0.7421875;-0.0008502197265625;-0.740875244140625;3;;
300;;;;;;;8348.14702292295;-0.74462890625;-0.00084991455078125;-0.743316650390625;3;;
301;;;;;;;8348.39116392234;-0.7470703125;-0.0008502197265625;-0.745758056640625;3;;
302;;;;;;;8348.63530492172;-0.74951171875;-0.000849609375;-0.74822998046875;3;;
303;;;;;;;8348.87944592111;-0.751953125;-0.00084930419921875;-0.7513427734375;3;;
304;;;;;;;8349.12358692049;-0.75439453125;-0.000849609375;-0.75408935546875;3;;
305;;;;;;;8349.36772791987;-0.7568359375;-0.0008489990234375;-0.7562255859375;3;;
306;;;;;;;8349.61186891926;-0.75927734375;-0.00084991455078125;-0.7586669921875;3;;
307;;;;;;;8349.85600991864;-0.76171875;-0.00085052490234375;-0.76141357421875;3;;
308;;;;;;;8350.10015091802;-0.76416015625;-0.0008489990234375;-0.76385498046875;3;;
309;;;;;;;8350.34429191741;-0.7666015625;-0.000849609375;-0.7659912109375;3;;
310;;;;;;;8350.58843291679;-0.76904296875;-0.00084991455078125;-0.76812744140625;3;;
311;;;;;;;8350.83257391617;-0.771484375;-0.000849609375;-0.7708740234375;3;;
312;;;;;;;8351.07671491556;-0.77392578125;-0.00084930419921875;-0.7733154296875;3;;
313;;;;;;;8351.32085591494;-0.7763671875;-0.000849609375;-0.77545166015625;3;;
314;;;;;;;8351.56499691433;-0.77880859375;-0.000850830078125;-0.77789306640625;3;;
315;;;;;;;8351.80913791371;-0.78125;-0.00084808349609375;-0.78094482421875;3;;
316;;;;;;;8352.05327891309;-0.78369140625;-0.00084808349609375;-0.78277587890625;3;;
317;;;;;;;8352.29741991248;-0.7861328125;-0.0008489990234375;-0.7855224609375;3;;
318;;;;;;;8352.54156091186;-0.78857421875;-0.00084808349609375;-0.787353515625;3;;
319;;;;;;;8352.78570191124;-0.791015625;-0.00084808349609375;-0.79010009765625;3;;
320;;;;;;;8353.02984291063;-0.79345703125;-0.0008489990234375;-0.79254150390625;3;;
321;;;;;;;8353.27398391001;-0.7958984375;-0.0008489990234375;-0.79498291015625;3;;
322;;;;;;;8353.51812490939;-0.79833984375;-0.0008489990234375;-0.79742431640625;3;;
323;;;;;;;8353.76226590878;-0.80078125;-0.00085052490234375;-0.79925537109375;3;;
324;;;;;;;8354.00640690816;-0.80322265625;-0.000850830078125;-0.80230712890625;3;;
325;;;;;;;8354.25054790754;-0.8056640625;-0.0008502197265625;-0.8050537109375;3;;
326;;;;;;;8354.49468890693;-0.80810546875;-0.0008514404296875;-0.80810546875;3;;
327;;;;;;;8354.73882990631;-0.810546875;-0.00085174560546875;-0.81024169921875;3;;
328;;;;;;;8354.9829709057;-0.81298828125;-0.00085235595703125;-0.81268310546875;3;;
329;;;;;;;8355.22711190508;-0.8154296875;-0.00085296630859375;-0.81512451171875;3;;
330;;;;;;;8355.47125290446;-0.81787109375;-0.0008538818359375;-0.81695556640625;3;;
331;;;;;;;8355.71539390385;-0.8203125;-0.00085296630859375;-0.82000732421875;3;;
332;;;;;;;8355.95953490323;-0.82275390625;-0.00085357666015625;-0.8221435546875;3;;
333;;;;;;;8356.20367590261;-0.8251953125;-0.0008538818359375;-0.82489013671875;3;;
334;;;;;;;8356.447816902;-0.82763671875;-0.0008538818359375;-0.8270263671875;3;;
335;;;;;;;8356.69195790138;-0.830078125;-0.00085418701171875;-0.8294677734375;3;;
336;;;;;;;8356.93609890077;-0.83251953125;-0.0008544921875;-0.83160400390625;3;;
337;;;;;;;8357.18023990015;-0.8349609375;-0.00085601806640625;-0.8343505859375;3;;
338;;;;;;;8357.42438089953;-0.83740234375;-0.00085662841796875;-0.8367919921875;3;;
339;;;;;;;8357.66852189892;-0.83984375;-0.000855712890625;-0.8392333984375;3;;
340;;;;;;;8357.9126628983;-0.84228515625;-0.00085784912109375;-0.84136962890625;3;;
341;;;;;;;8358.15680389768;-0.8447265625;-0.00085845947265625;-0.8441162109375;3;;
342;;;;;;;8358.40094489707;-0.84716796875;-0.00085906982421875;-0.8465576171875;3;;
343;;;;;;;8358.64508589645;-0.849609375;-0.00085968017578125;-0.84930419921875;3;;
344;;;;;;;8358.88922689583;-0.85205078125;-0.0008599853515625;-0.85113525390625;3;;
345;;;;;;;8359.13336789522;-0.8544921875;-0.00086181640625;-0.85357666015625;3;;
346;;;;;;;8359.3775088946;-0.85693359375;-0.0008624267578125;-0.85601806640625;3;;
347;;;;;;;8359.62164989398;-0.859375;-0.000863037109375;-0.85845947265625;3;;
348;;;;;;;8359.86579089337;-0.86181640625;-0.00086395263671875;-0.86181640625;3;;
349;;;;;;;8360.10993189275;-0.8642578125;-0.0008636474609375;-0.86334228515625;3;;
350;;;;;;;8360.35407289213;-0.86669921875;-0.0008642578125;-0.86578369140625;3;;
351;;;;;;;8360.59821389152;-0.869140625;-0.00086517333984375;-0.86822509765625;3;;
352;;;;;;;8360.8423548909;-0.87158203125;-0.00086456298828125;-0.8709716796875;3;;
353;;;;;;;8361.08649589029;-0.8740234375;-0.00086517333984375;-0.8734130859375;3;;
354;;;;;;;8361.33063688967;-0.87646484375;-0.00086578369140625;-0.87554931640625;3;;
355;;;;;;;8361.57477788905;-0.87890625;-0.00086700439453125;-0.87799072265625;3;;
356;;;;;;;8361.81891888844;-0.88134765625;-0.00086700439453125;-0.880126953125;3;;
357;;;;;;;8362.06305988782;-0.8837890625;-0.000867919921875;-0.88287353515625;3;;
358;;;;;;;8362.3072008872;-0.88623046875;-0.00086883544921875;-0.8856201171875;3;;
359;;;;;;;8362.55134188659;-0.888671875;-0.00086883544921875;-0.88775634765625;3;;
360;;;;;;;8362.79548288597;-0.89111328125;-0.00086883544921875;-0.89080810546875;3;;
361;;;;;;;8363.03962388536;-0.8935546875;-0.0008697509765625;-0.89263916015625;3;;
362;;;;;;;8363.28376488474;-0.89599609375;-0.00087066650390625;-0.89508056640625;3;;
363;;;;;;;8363.52790588412;-0.8984375;-0.00087188720703125;-0.8978271484375;3;;
364;;;;;;;8363.77204688351;-0.90087890625;-0.000872802734375;-0.90057373046875;3;;
365;;;;;;;8364.01618788289;-0.9033203125;-0.000872802734375;-0.9027099609375;3;;
366;;;;;;;8364.26032888227;-0.90576171875;-0.000870361328125;-0.9051513671875;3;;
367;;;;;;;8364.50446988166;-0.908203125;-0.000872802734375;-0.90789794921875;3;;
368;;;;;;;8364.74861088104;-0.91064453125;-0.0008734130859375;-0.9100341796875;3;;
369;;;;;;;8364.99275188042;-0.9130859375;-0.0008734130859375;-0.91217041015625;3;;
370;;;;;;;8365.23689287981;-0.91552734375;-0.0008734130859375;-0.9149169921875;3;;
371;;;;;;;8365.48103387919;-0.91796875;-0.00087310791015625;-0.91796875;3;;
372;;;;;;;8365.72517487857;-0.92041015625;-0.00087249755859375;-0.92041015625;3;;
373;;;;;;;8365.96931587796;-0.9228515625;-0.00087249755859375;-0.9222412109375;3;;
374;;;;;;;8366.21345687734;-0.92529296875;-0.0008721923828125;-0.924072265625;3;;
375;;;;;;;8366.45759787672;-0.927734375;-0.000872802734375;-0.9271240234375;3;;
376;;;;;;;8366.70173887611;-0.93017578125;-0.000872802734375;-0.92987060546875;3;;
377;;;;;;;8366.94587987549;-0.9326171875;-0.00087310791015625;-0.93231201171875;3;;
378;;;;;;;8367.19002087488;-0.93505859375;-0.00087310791015625;-0.93414306640625;3;;
379;;;;;;;8367.43416187426;-0.9375;-0.00087188720703125;-0.9368896484375;3;;
380;;;;;;;8367.67830287364;-0.93994140625;-0.0008709716796875;-0.9393310546875;3;;
381;;;;;;;8367.92244387303;-0.9423828125;-0.00087188720703125;-0.94146728515625;3;;
382;;;;;;;8368.16658487241;-0.94482421875;-0.0008721923828125;-0.94451904296875;3;;
383;;;;;;;8368.41072587179;-0.947265625;-0.00087249755859375;-0.94696044921875;3;;
384;;;;;;;8368.65486687118;-0.94970703125;-0.000872802734375;-0.94940185546875;3;;
385;;;;;;;8368.89900787056;-0.9521484375;-0.00087127685546875;-0.9515380859375;3;;
386;;;;;;;8369.14314886995;-0.95458984375;-0.0008721923828125;-0.953369140625;3;;
387;;;;;;;8369.38728986933;-0.95703125;-0.000872802734375;-0.95611572265625;3;;
388;;;;;;;8369.63143086871;-0.95947265625;-0.000872802734375;-0.95916748046875;3;;
389;;;;;;;8369.8755718681;-0.9619140625;-0.00087249755859375;-0.9613037109375;3;;
390;;;;;;;8370.11971286748;-0.96435546875;-0.00087066650390625;-0.96405029296875;3;;
391;;;;;;;8370.36385386686;-0.966796875;-0.00086944580078125;-0.9661865234375;3;;
392;;;;;;;8370.60799486625;-0.96923828125;-0.0008709716796875;-0.96832275390625;3;;
393;;;;;;;8370.85213586563;-0.9716796875;-0.000870361328125;-0.9710693359375;3;;
394;;;;;;;8371.09627686501;-0.97412109375;-0.00086944580078125;-0.97381591796875;3;;
395;;;;;;;8371.3404178644;-0.9765625;-0.000869140625;-0.97564697265625;3;;
396;;;;;;;8371.58455886378;-0.97900390625;-0.00086883544921875;-0.9783935546875;3;;
397;;;;;;;8371.82869986316;-0.9814453125;-0.00086883544921875;-0.9808349609375;3;;
398;;;;;;;8372.07284086255;-0.98388671875;-0.000869140625;-0.98297119140625;3;;
399;;;;;;;8372.31698186193;-0.986328125;-0.0008697509765625;-0.9857177734375;3;;
400;;;;;;;8372.56112286132;-0.98876953125;-0.00087005615234375;-0.9881591796875;3;;
401;;;;;;;8372.8052638607;-0.9912109375;-0.000870361328125;-0.99090576171875;3;;
402;;;;;;;8373.04940486008;-0.99365234375;-0.000870361328125;-0.9930419921875;3;;
403;;;;;;;8373.29354585947;-0.99609375;-0.00087127685546875;-0.99578857421875;3;;
404;;;;;;;8373.53768685885;-0.99853515625;-0.0008709716796875;-0.99761962890625;3;;
405;;;;;;;8373.78182785823;-1.0009765625;-0.0008697509765625;-1.00006103515625;3;;
406;;;;;;;8374.02596885762;-0.99853515625;-0.00086395263671875;-0.99761962890625;3;;
407;;;;;;;8374.270109857;-0.99609375;-0.0008599853515625;-0.99578857421875;3;;
408;;;;;;;8374.51425085638;-0.99365234375;-0.0008575439453125;-0.99334716796875;3;;
409;;;;;;;8374.75839185577;-0.9912109375;-0.00085479736328125;-0.99090576171875;3;;
410;;;;;;;8375.00253285515;-0.98876953125;-0.00085174560546875;-0.98846435546875;3;;
411;;;;;;;8375.24667385454;-0.986328125;-0.00084869384765625;-0.9857177734375;3;;
412;;;;;;;8375.49081485392;-0.98388671875;-0.000845947265625;-0.9832763671875;3;;
413;;;;;;;8375.7349558533;-0.9814453125;-0.000843505859375;-0.98052978515625;3;;
414;;;;;;;8375.97909685269;-0.97900390625;-0.00084136962890625;-0.97808837890625;3;;
415;;;;;;;8376.22323785207;-0.9765625;-0.00083953857421875;-0.97625732421875;3;;
416;;;;;;;8376.46737885145;-0.97412109375;-0.0008380126953125;-0.97381591796875;3;;
417;;;;;;;8376.71151985084;-0.9716796875;-0.0008367919921875;-0.9710693359375;3;;
418;;;;;;;8376.95566085022;-0.96923828125;-0.0008355712890625;-0.9686279296875;3;;
419;;;;;;;8377.1998018496;-0.966796875;-0.000833740234375;-0.96588134765625;3;;
420;;;;;;;8377.44394284899;-0.96435546875;-0.00083251953125;-0.96343994140625;3;;
421;;;;;;;8377.68808384837;-0.9619140625;-0.00083160400390625;-0.9613037109375;3;;
422;;;;;;;8377.93222484775;-0.95947265625;-0.00083221435546875;-0.95855712890625;3;;
423;;;;;;;8378.17636584714;-0.95703125;-0.0008319091796875;-0.9564208984375;3;;
424;;;;;;;8378.42050684652;-0.95458984375;-0.000831298828125;-0.95428466796875;3;;
425;;;;;;;8378.66464784591;-0.9521484375;-0.00082916259765625;-0.9521484375;3;;
426;;;;;;;8378.90878884529;-0.94970703125;-0.00082733154296875;-0.9490966796875;3;;
427;;;;;;;8379.15292984467;-0.947265625;-0.00082733154296875;-0.9466552734375;3;;
428;;;;;;;8379.39707084406;-0.94482421875;-0.00082611083984375;-0.94390869140625;3;;
429;;;;;;;8379.64121184344;-0.9423828125;-0.00082366943359375;-0.9417724609375;3;;
430;;;;;;;8379.88535284282;-0.93994140625;-0.00082275390625;-0.93963623046875;3;;
431;;;;;;;8380.12949384221;-0.9375;-0.00082244873046875;-0.936279296875;3;;
432;;;;;;;8380.37363484159;-0.93505859375;-0.00082061767578125;-0.9344482421875;3;;
433;;;;;;;8380.61777584097;-0.9326171875;-0.000819091796875;-0.93170166015625;3;;
434;;;;;;;8380.86191684036;-0.93017578125;-0.00081787109375;-0.92926025390625;3;;
435;;;;;;;8381.10605783974;-0.927734375;-0.0008172607421875;-0.927734375;3;;
436;;;;;;;8381.35019883913;-0.92529296875;-0.000816650390625;-0.92498779296875;3;;
437;;;;;;;8381.59433983851;-0.9228515625;-0.0008154296875;-0.92193603515625;3;;
438;;;;;;;8381.83848083789;-0.92041015625;-0.0008148193359375;-0.92010498046875;3;;
439;;;;;;;8382.08262183727;-0.91796875;-0.00081451416015625;-0.9173583984375;3;;
440;;;;;;;8382.32676283666;-0.91552734375;-0.00081451416015625;-0.9149169921875;3;;
441;;;;;;;8382.57090383604;-0.9130859375;-0.0008135986328125;-0.9130859375;3;;
442;;;;;;;8382.81504483543;-0.91064453125;-0.0008123779296875;-0.91033935546875;3;;
443;;;;;;;8383.05918583481;-0.908203125;-0.00081146240234375;-0.90728759765625;3;;
444;;;;;;;8383.30332683419;-0.90576171875;-0.00081085205078125;-0.9051513671875;3;;
445;;;;;;;8383.54746783358;-0.9033203125;-0.0008099365234375;-0.90240478515625;3;;
446;;;;;;;8383.79160883296;-0.90087890625;-0.00080963134765625;-0.9002685546875;3;;
447;;;;;;;8384.03574983234;-0.8984375;-0.00080841064453125;-0.89752197265625;3;;
448;;;;;;;8384.27989083173;-0.89599609375;-0.0008074951171875;-0.89569091796875;3;;
449;;;;;;;8384.52403183111;-0.8935546875;-0.0008074951171875;-0.8929443359375;3;;
450;;;;;;;8384.7681728305;-0.89111328125;-0.0008062744140625;-0.89080810546875;3;;
451;;;;;;;8385.01231382988;-0.888671875;-0.00080535888671875;-0.88775634765625;3;;
452;;;;;;;8385.25645482926;-0.88623046875;-0.00080535888671875;-0.88592529296875;3;;
453;;;;;;;8385.50059582865;-0.8837890625;-0.000804443359375;-0.88226318359375;3;;
454;;;;;;;8385.74473682803;-0.88134765625;-0.0008038330078125;-0.88043212890625;3;;
455;;;;;;;8385.98887782741;-0.87890625;-0.00080169677734375;-0.8782958984375;3;;
456;;;;;;;8386.2330188268;-0.87646484375;-0.00080169677734375;-0.8758544921875;3;;
457;;;;;;;8386.47715982618;-0.8740234375;-0.00080108642578125;-0.87310791015625;3;;
458;;;;;;;8386.72130082556;-0.87158203125;-0.00079925537109375;-0.8709716796875;3;;
459;;;;;;;8386.96544182495;-0.869140625;-0.00080047607421875;-0.867919921875;3;;
460;;;;;;;8387.20958282433;-0.86669921875;-0.0007989501953125;-0.865478515625;3;;
461;;;;;;;8387.45372382372;-0.8642578125;-0.00079803466796875;-0.863037109375;3;;
462;;;;;;;8387.6978648231;-0.86181640625;-0.0007989501953125;-0.8612060546875;3;;
463;;;;;;;8387.94200582248;-0.859375;-0.00079833984375;-0.85845947265625;3;;
464;;;;;;;8388.18614682187;-0.85693359375;-0.00079742431640625;-0.85693359375;3;;
465;;;;;;;8388.43028782125;-0.8544921875;-0.000797119140625;-0.8538818359375;3;;
466;;;;;;;8388.67442882063;-0.85205078125;-0.000797119140625;-0.85113525390625;3;;
467;;;;;;;8388.91856982002;-0.849609375;-0.00079620361328125;-0.84930419921875;3;;
468;;;;;;;8389.1627108194;-0.84716796875;-0.000794677734375;-0.8465576171875;3;;
469;;;;;;;8389.40685181878;-0.8447265625;-0.00079437255859375;-0.84381103515625;3;;
470;;;;;;;8389.65099281817;-0.84228515625;-0.0007940673828125;-0.84136962890625;3;;
471;;;;;;;8389.89513381755;-0.83984375;-0.00079437255859375;-0.83892822265625;3;;
472;;;;;;;8390.13927481693;-0.83740234375;-0.00079315185546875;-0.836181640625;3;;
473;;;;;;;8390.38341581632;-0.8349609375;-0.0007916259765625;-0.8349609375;3;;
474;;;;;;;8390.6275568157;-0.83251953125;-0.00079193115234375;-0.83221435546875;3;;
475;;;;;;;8390.87169781509;-0.830078125;-0.00079193115234375;-0.828857421875;3;;
476;;;;;;;8391.11583881447;-0.82763671875;-0.0007952880859375;-0.8270263671875;3;;
477;;;;;;;8391.35997981385;-0.8251953125;-0.00079559326171875;-0.82489013671875;3;;
478;;;;;;;8391.60412081324;-0.82275390625;-0.00079345703125;-0.8221435546875;3;;
479;;;;;;;8391.84826181262;-0.8203125;-0.00079254150390625;-0.8197021484375;3;;
480;;;;;;;8392.092402812;-0.81787109375;-0.00079254150390625;-0.81756591796875;3;;
481;;;;;;;8392.33654381139;-0.8154296875;-0.00079254150390625;-0.8148193359375;3;;
482;;;;;;;8392.58068481077;-0.81298828125;-0.00079345703125;-0.8123779296875;3;;
483;;;;;;;8392.82482581015;-0.810546875;-0.00079315185546875;-0.8099365234375;3;;
484;;;;;;;8393.06896680954;-0.80810546875;-0.00079345703125;-0.8074951171875;3;;
485;;;;;;;8393.31310780892;-0.8056640625;-0.0007928466796875;-0.8050537109375;3;;
486;;;;;;;8393.55724880831;-0.80322265625;-0.00079254150390625;-0.8026123046875;3;;
487;;;;;;;8393.80138980769;-0.80078125;-0.00079254150390625;-0.79986572265625;3;;
488;;;;;;;8394.04553080707;-0.79833984375;-0.00079315185546875;-0.79742431640625;3;;
489;;;;;;;8394.28967180646;-0.7958984375;-0.00079315185546875;-0.79498291015625;3;;
490;;;;;;;8394.53381280584;-0.79345703125;-0.00079345703125;-0.792236328125;3;;
491;;;;;;;8394.77795380522;-0.791015625;-0.0007940673828125;-0.79071044921875;3;;
492;;;;;;;8395.02209480461;-0.78857421875;-0.000794677734375;-0.787353515625;3;;
493;;;;;;;8395.26623580399;-0.7861328125;-0.0007952880859375;-0.7855224609375;3;;
494;;;;;;;8395.51037680337;-0.78369140625;-0.0007952880859375;-0.78277587890625;3;;
495;;;;;;;8395.75451780276;-0.78125;-0.0007952880859375;-0.77972412109375;3;;
496;;;;;;;8395.99865880214;-0.77880859375;-0.0007965087890625;-0.7781982421875;3;;
497;;;;;;;8396.24279980152;-0.7763671875;-0.00079620361328125;-0.7757568359375;3;;
498;;;;;;;8396.48694080091;-0.77392578125;-0.00079742431640625;-0.7733154296875;3;;
499;;;;;;;8396.73108180029;-0.771484375;-0.00079803466796875;-0.77056884765625;3;;
500;;;;;;;8396.97522279968;-0.76904296875;-0.00079864501953125;-0.767822265625;3;;
501;;;;;;;8397.21936379906;-0.7666015625;-0.0008013916015625;-0.76568603515625;3;;
502;;;;;;;8397.46350479844;-0.76416015625;-0.0008013916015625;-0.7635498046875;3;;
503;;;;;;;8397.70764579783;-0.76171875;-0.000802001953125;-0.7611083984375;3;;
504;;;;;;;8397.95178679721;-0.75927734375;-0.00080230712890625;-0.75836181640625;3;;
505;;;;;;;8398.19592779659;-0.7568359375;-0.00080169677734375;-0.75592041015625;3;;
506;;;;;;;8398.44006879598;-0.75439453125;-0.0008026123046875;-0.7537841796875;3;;
507;;;;;;;8398.68420979536;-0.751953125;-0.00080352783203125;-0.7513427734375;3;;
508;;;;;;;8398.92835079474;-0.74951171875;-0.00080352783203125;-0.7481689453125;3;;
509;;;;;;;8399.17249179413;-0.7470703125;-0.00080413818359375;-0.745819091796875;3;;
510;;;;;;;8399.41663279351;-0.74462890625;-0.0008050537109375;-0.74334716796875;3;;
511;;;;;;;8399.6607737929;-0.7421875;-0.0008056640625;-0.740875244140625;3;;
512;;;;;;;8399.90491479228;-0.73974609375;-0.0008062744140625;-0.738433837890625;3;;
513;;;;;;;8400.14905579166;-0.7373046875;-0.0008074951171875;-0.735992431640625;3;;
514;;;;;;;8400.39319679105;-0.73486328125;-0.00080902099609375;-0.73358154296875;3;;
515;;;;;;;8400.63733779043;-0.732421875;-0.00080963134765625;-0.731109619140625;3;;
516;;;;;;;8400.88147878981;-0.72998046875;-0.000810546875;-0.72869873046875;3;;
517;;;;;;;8401.1256197892;-0.7275390625;-0.00081146240234375;-0.726226806640625;3;;
518;;;;;;;8401.36976078858;-0.72509765625;-0.0008123779296875;-0.723785400390625;3;;
519;;;;;;;8401.61390178796;-0.72265625;-0.00081329345703125;-0.721405029296875;3;;
520;;;;;;;8401.85804278735;-0.72021484375;-0.0008148193359375;-0.718963623046875;3;;
521;;;;;;;8402.10218378673;-0.7177734375;-0.000816650390625;-0.71649169921875;3;;
522;;;;;;;8402.34632478611;-0.71533203125;-0.00081756591796875;-0.714019775390625;3;;
523;;;;;;;8402.5904657855;-0.712890625;-0.00081878662109375;-0.7115478515625;3;;
524;;;;;;;8402.83460678488;-0.71044921875;-0.0008197021484375;-0.709136962890625;3;;
525;;;;;;;8403.07874778427;-0.7080078125;-0.00081817626953125;-0.706695556640625;3;;
526;;;;;;;8403.32288878365;-0.70556640625;-0.0008197021484375;-0.70428466796875;3;;
527;;;;;;;8403.56702978303;-0.703125;-0.00082000732421875;-0.7017822265625;3;;
528;;;;;;;8403.81117078242;-0.70068359375;-0.0008221435546875;-0.699432373046875;3;;
529;;;;;;;8404.0553117818;-0.6982421875;-0.00082275390625;-0.696868896484375;3;;
530;;;;;;;8404.29945278118;-0.69580078125;-0.0008233642578125;-0.694488525390625;3;;
531;;;;;;;8404.54359378057;-0.693359375;-0.00082366943359375;-0.692108154296875;3;;
532;;;;;;;8404.78773477995;-0.69091796875;-0.00082427978515625;-0.689666748046875;3;;
533;;;;;;;8405.03187577933;-0.6884765625;-0.0008245849609375;-0.6871337890625;3;;
534;;;;;;;8405.27601677872;-0.68603515625;-0.0008258056640625;-0.684783935546875;3;;
535;;;;;;;8405.5201577781;-0.68359375;-0.00082733154296875;-0.682281494140625;3;;
536;;;;;;;8405.76429877749;-0.68115234375;-0.00082794189453125;-0.679840087890625;3;;
537;;;;;;;8406.00843977687;-0.6787109375;-0.000828857421875;-0.677398681640625;3;;
538;;;;;;;8406.25258077625;-0.67626953125;-0.00083038330078125;-0.674957275390625;3;;
539;;;;;;;8406.49672177564;-0.673828125;-0.000831298828125;-0.67254638671875;3;;
540;;;;;;;8406.74086277502;-0.67138671875;-0.00083099365234375;-0.67010498046875;3;;
541;;;;;;;8406.9850037744;-0.6689453125;-0.00083099365234375;-0.667694091796875;3;;
542;;;;;;;8407.22914477379;-0.66650390625;-0.00083160400390625;-0.665283203125;3;;
543;;;;;;;8407.47328577317;-0.6640625;-0.00083221435546875;-0.66278076171875;3;;
544;;;;;;;8407.71742677255;-0.66162109375;-0.00083251953125;-0.660400390625;3;;
545;;;;;;;8407.96156777194;-0.6591796875;-0.0008331298828125;-0.65789794921875;3;;
546;;;;;;;8408.20570877132;-0.65673828125;-0.00083343505859375;-0.655426025390625;3;;
547;;;;;;;8408.4498497707;-0.654296875;-0.000833740234375;-0.653045654296875;3;;
548;;;;;;;8408.69399077009;-0.65185546875;-0.000833740234375;-0.650604248046875;3;;
549;;;;;;;8408.93813176947;-0.6494140625;-0.00083404541015625;-0.648101806640625;3;;
550;;;;;;;8409.18227276886;-0.64697265625;-0.00083404541015625;-0.645721435546875;3;;
551;;;;;;;8409.42641376824;-0.64453125;-0.0008343505859375;-0.64324951171875;3;;
552;;;;;;;8409.67055476762;-0.64208984375;-0.0008349609375;-0.640838623046875;3;;
553;;;;;;;8409.91469576701;-0.6396484375;-0.00083526611328125;-0.638397216796875;3;;
554;;;;;;;8410.15883676639;-0.63720703125;-0.00083587646484375;-0.635955810546875;3;;
555;;;;;;;8410.40297776577;-0.634765625;-0.000836181640625;-0.63348388671875;3;;
556;;;;;;;8410.64711876516;-0.63232421875;-0.0008367919921875;-0.63104248046875;3;;
557;;;;;;;8410.89125976454;-0.6298828125;-0.00083526611328125;-0.628631591796875;3;;
558;;;;;;;8411.13540076392;-0.62744140625;-0.00083526611328125;-0.626129150390625;3;;
559;;;;;;;8411.37954176331;-0.625;-0.0008367919921875;-0.623748779296875;3;;
560;;;;;;;8411.62368276269;-0.62255859375;-0.00083709716796875;-0.62127685546875;3;;
561;;;;;;;8411.86782376208;-0.6201171875;-0.00083709716796875;-0.61883544921875;3;;
562;;;;;;;8412.11196476146;-0.61767578125;-0.0008367919921875;-0.61639404296875;3;;
563;;;;;;;8412.35610576084;-0.615234375;-0.00083587646484375;-0.613922119140625;3;;
564;;;;;;;8412.60024676023;-0.61279296875;-0.00083587646484375;-0.611480712890625;3;;
565;;;;;;;8412.84438775961;-0.6103515625;-0.00083709716796875;-0.609100341796875;3;;
566;;;;;;;8413.08852875899;-0.60791015625;-0.00083709716796875;-0.60662841796875;3;;
567;;;;;;;8413.33266975838;-0.60546875;-0.000836181640625;-0.604156494140625;3;;
568;;;;;;;8413.57681075776;-0.60302734375;-0.0008349609375;-0.601776123046875;3;;
569;;;;;;;8413.82095175714;-0.6005859375;-0.00083343505859375;-0.599334716796875;3;;
570;;;;;;;8414.06509275653;-0.59814453125;-0.00083160400390625;-0.596954345703125;3;;
571;;;;;;;8414.30923375591;-0.595703125;-0.0008319091796875;-0.59442138671875;3;;
572;;;;;;;8414.55337475529;-0.59326171875;-0.00083282470703125;-0.592041015625;3;;
573;;;;;;;8414.79751575468;-0.5908203125;-0.000831298828125;-0.589599609375;3;;
574;;;;;;;8415.04165675406;-0.58837890625;-0.00083099365234375;-0.587188720703125;3;;
575;;;;;;;8415.28579775345;-0.5859375;-0.000831298828125;-0.584716796875;3;;
576;;;;;;;8415.52993875283;-0.58349609375;-0.00083099365234375;-0.58233642578125;3;;
577;;;;;;;8415.77407975221;-0.5810546875;-0.0008306884765625;-0.57989501953125;3;;
578;;;;;;;8416.0182207516;-0.57861328125;-0.00083038330078125;-0.57745361328125;3;;
579;;;;;;;8416.26236175098;-0.576171875;-0.00082977294921875;-0.574981689453125;3;;
580;;;;;;;8416.50650275036;-0.57373046875;-0.0008294677734375;-0.572509765625;3;;
581;;;;;;;8416.75064374975;-0.5712890625;-0.00082916259765625;-0.570098876953125;3;;
582;;;;;;;8416.99478474913;-0.56884765625;-0.00082763671875;-0.567657470703125;3;;
583;;;;;;;8417.23892574851;-0.56640625;-0.0008258056640625;-0.565277099609375;3;;
584;;;;;;;8417.4830667479;-0.56396484375;-0.000823974609375;-0.56280517578125;3;;
585;;;;;;;8417.72720774728;-0.5615234375;-0.00082427978515625;-0.56036376953125;3;;
586;;;;;;;8417.97134874667;-0.55908203125;-0.00082305908203125;-0.557952880859375;3;;
587;;;;;;;8418.21548974605;-0.556640625;-0.00082275390625;-0.555511474609375;3;;
588;;;;;;;8418.45963074543;-0.55419921875;-0.0008221435546875;-0.5531005859375;3;;
589;;;;;;;8418.70377174482;-0.5517578125;-0.00082122802734375;-0.550628662109375;3;;
590;;;;;;;8418.9479127442;-0.54931640625;-0.0008209228515625;-0.54815673828125;3;;
591;;;;;;;8419.19205374358;-0.546875;-0.00082122802734375;-0.54571533203125;3;;
592;;;;;;;8419.43619474297;-0.54443359375;-0.0008209228515625;-0.54327392578125;3;;
593;;;;;;;8419.68033574235;-0.5419921875;-0.00081939697265625;-0.540863037109375;3;;
594;;;;;;;8419.92447674173;-0.53955078125;-0.00081817626953125;-0.538421630859375;3;;
595;;;;;;;8420.16861774112;-0.537109375;-0.0008184814453125;-0.53594970703125;3;;
596;;;;;;;8420.4127587405;-0.53466796875;-0.000819091796875;-0.533477783203125;3;;
597;;;;;;;8420.65689973988;-0.5322265625;-0.00081787109375;-0.5311279296875;3;;
598;;;;;;;8420.90104073927;-0.52978515625;-0.00081787109375;-0.528717041015625;3;;
599;;;;;;;8421.14518173865;-0.52734375;-0.000816650390625;-0.526153564453125;3;;
600;;;;;;;8421.38932273804;-0.52490234375;-0.00081512451171875;-0.5238037109375;3;;
601;;;;;;;8421.63346373742;-0.5224609375;-0.0008148193359375;-0.521392822265625;3;;
602;;;;;;;8421.8776047368;-0.52001953125;-0.0008148193359375;-0.518890380859375;3;;
603;;;;;;;8422.12174573619;-0.517578125;-0.00081298828125;-0.5164794921875;3;;
604;;;;;;;8422.36588673557;-0.51513671875;-0.00081146240234375;-0.514129638671875;3;;
605;;;;;;;8422.61002773495;-0.5126953125;-0.000810546875;-0.5115966796875;3;;
606;;;;;;;8422.85416873434;-0.51025390625;-0.0008099365234375;-0.5091552734375;3;;
607;;;;;;;8423.09830973372;-0.5078125;-0.000809326171875;-0.506744384765625;3;;
608;;;;;;;8423.3424507331;-0.50537109375;-0.0008087158203125;-0.504241943359375;3;;
609;;;;;;;8423.58659173249;-0.5029296875;-0.00080810546875;-0.501800537109375;3;;
610;;;;;;;8423.83073273187;-0.50048828125;-0.00080718994140625;-0.49945068359375;3;;
611;;;;;;;8424.07487373126;-0.498046875;-0.00080657958984375;-0.496978759765625;3;;
612;;;;;;;8424.31901473064;-0.49560546875;-0.0008056640625;-0.494537353515625;3;;
613;;;;;;;8424.56315573002;-0.4931640625;-0.00080413818359375;-0.492095947265625;3;;
614;;;;;;;8424.80729672941;-0.49072265625;-0.00080535888671875;-0.48968505859375;3;;
615;;;;;;;8425.05143772879;-0.48828125;-0.0008062744140625;-0.487152099609375;3;;
616;;;;;;;8425.29557872817;-0.48583984375;-0.0008038330078125;-0.484771728515625;3;;
617;;;;;;;8425.53971972756;-0.4833984375;-0.00080230712890625;-0.482330322265625;3;;
618;;;;;;;8425.78386072694;-0.48095703125;-0.00080108642578125;-0.47991943359375;3;;
619;;;;;;;8426.02800172632;-0.478515625;-0.00080047607421875;-0.47747802734375;3;;
620;;;;;;;8426.27214272571;-0.47607421875;-0.00079864501953125;-0.47503662109375;3;;
621;;;;;;;8426.51628372509;-0.4736328125;-0.00079803466796875;-0.472625732421875;3;;
622;;;;;;;8426.76042472447;-0.47119140625;-0.000797119140625;-0.47015380859375;3;;
623;;;;;;;8427.00456572386;-0.46875;-0.0007952880859375;-0.467681884765625;3;;
624;;;;;;;8427.24870672324;-0.46630859375;-0.00079345703125;-0.46527099609375;3;;
625;;;;;;;8427.49284772263;-0.4638671875;-0.000792236328125;-0.462890625;3;;
626;;;;;;;8427.73698872201;-0.46142578125;-0.0007916259765625;-0.460418701171875;3;;
627;;;;;;;8427.98112972139;-0.458984375;-0.000789794921875;-0.4580078125;3;;
628;;;;;;;8428.22527072078;-0.45654296875;-0.00078887939453125;-0.45550537109375;3;;
629;;;;;;;8428.46941172016;-0.4541015625;-0.00078765869140625;-0.453125;3;;
630;;;;;;;8428.71355271954;-0.45166015625;-0.0007855224609375;-0.45068359375;3;;
631;;;;;;;8428.95769371893;-0.44921875;-0.00078399658203125;-0.4482421875;3;;
632;;;;;;;8429.20183471831;-0.44677734375;-0.00078216552734375;-0.44580078125;3;;
633;;;;;;;8429.4459757177;-0.4443359375;-0.000780029296875;-0.443328857421875;3;;
634;;;;;;;8429.69011671708;-0.44189453125;-0.00077880859375;-0.44091796875;3;;
635;;;;;;;8429.93425771646;-0.439453125;-0.00077728271484375;-0.43841552734375;3;;
636;;;;;;;8430.17839871585;-0.43701171875;-0.00077545166015625;-0.436126708984375;3;;
637;;;;;;;8430.42253971523;-0.4345703125;-0.0007733154296875;-0.43359375;3;;
638;;;;;;;8430.66668071461;-0.43212890625;-0.00077117919921875;-0.431182861328125;3;;
639;;;;;;;8430.910821714;-0.4296875;-0.0007684326171875;-0.428741455078125;3;;
640;;;;;;;8431.15496271338;-0.42724609375;-0.00076568603515625;-0.42633056640625;3;;
641;;;;;;;8431.39910371276;-0.4248046875;-0.00076263427734375;-0.423858642578125;3;;
642;;;;;;;8431.64324471215;-0.42236328125;-0.00075958251953125;-0.421417236328125;3;;
643;;;;;;;8431.88738571153;-0.419921875;-0.00075653076171875;-0.419036865234375;3;;
644;;;;;;;8432.13152671091;-0.41748046875;-0.000753173828125;-0.41656494140625;3;;
645;;;;;;;8432.3756677103;-0.4150390625;-0.00074981689453125;-0.414093017578125;3;;
646;;;;;;;8432.61980870968;-0.41259765625;-0.00074615478515625;-0.411651611328125;3;;
647;;;;;;;8432.86394970906;-0.41015625;-0.00074188232421875;-0.409271240234375;3;;
648;;;;;;;8433.10809070845;-0.40771484375;-0.0007379150390625;-0.406768798828125;3;;
649;;;;;;;8433.35223170783;-0.4052734375;-0.00073394775390625;-0.404327392578125;3;;
650;;;;;;;8433.59637270722;-0.40283203125;-0.0007293701171875;-0.40191650390625;3;;
651;;;;;;;8433.8405137066;-0.400390625;-0.00072479248046875;-0.39947509765625;3;;
652;;;;;;;8434.08465470598;-0.39794921875;-0.00072021484375;-0.397064208984375;3;;
653;;;;;;;8434.32879570537;-0.3955078125;-0.00071502685546875;-0.3946533203125;3;;
654;;;;;;;8434.57293670475;-0.39306640625;-0.0007098388671875;-0.392181396484375;3;;
655;;;;;;;8434.81707770413;-0.390625;-0.000704345703125;-0.389739990234375;3;;
656;;;;;;;8435.06121870352;-0.38818359375;-0.0006982421875;-0.3873291015625;3;;
657;;;;;;;8435.3053597029;-0.3857421875;-0.00069183349609375;-0.384857177734375;3;;
658;;;;;;;8435.54950070229;-0.38330078125;-0.0006854248046875;-0.382415771484375;3;;
659;;;;;;;8435.79364170167;-0.380859375;-0.00067840576171875;-0.3800048828125;3;;
660;;;;;;;8436.03778270105;-0.37841796875;-0.00067108154296875;-0.377532958984375;3;;
661;;;;;;;8436.28192370044;-0.3759765625;-0.00066375732421875;-0.37506103515625;3;;
662;;;;;;;8436.52606469982;-0.37353515625;-0.0006561279296875;-0.37261962890625;3;;
663;;;;;;;8436.7702056992;-0.37109375;-0.00064788818359375;-0.3702392578125;3;;
664;;;;;;;8437.01434669859;-0.36865234375;-0.0006396484375;-0.367767333984375;3;;
665;;;;;;;8437.25848769797;-0.3662109375;-0.000631103515625;-0.365386962890625;3;;
666;;;;;;;8437.50262869735;-0.36376953125;-0.00062225341796875;-0.362945556640625;3;;
667;;;;;;;8437.74676969674;-0.361328125;-0.0006134033203125;-0.360443115234375;3;;
668;;;;;;;8437.99091069612;-0.35888671875;-0.00060394287109375;-0.35809326171875;3;;
669;;;;;;;8438.2350516955;-0.3564453125;-0.000594482421875;-0.355682373046875;3;;
670;;;;;;;8438.47919269489;-0.35400390625;-0.00058502197265625;-0.353179931640625;3;;
671;;;;;;;8438.72333369427;-0.3515625;-0.0005755615234375;-0.350738525390625;3;;
672;;;;;;;8438.96747469365;-0.34912109375;-0.00056549072265625;-0.34832763671875;3;;
673;;;;;;;8439.21161569304;-0.3466796875;-0.000555419921875;-0.345855712890625;3;;
674;;;;;;;8439.45575669242;-0.34423828125;-0.0005450439453125;-0.343414306640625;3;;
675;;;;;;;8439.69989769181;-0.341796875;-0.00053436279296875;-0.34100341796875;3;;
676;;;;;;;8439.94403869119;-0.33935546875;-0.000523681640625;-0.338623046875;3;;
677;;;;;;;8440.18817969057;-0.3369140625;-0.0005126953125;-0.336212158203125;3;;
678;;;;;;;8440.43232068996;-0.33447265625;-0.00050140380859375;-0.333648681640625;3;;
679;;;;;;;8440.67646168934;-0.33203125;-0.000490325927734375;-0.331298828125;3;;
680;;;;;;;8440.92060268872;-0.32958984375;-0.000478851318359375;-0.328826904296875;3;;
681;;;;;;;8441.16474368811;-0.3271484375;-0.00046722412109375;-0.326324462890625;3;;
682;;;;;;;8441.40888468749;-0.32470703125;-0.000455535888671875;-0.323974609375;3;;
683;;;;;;;8441.65302568688;-0.322265625;-0.00044384765625;-0.321563720703125;3;;
684;;;;;;;8441.89716668626;-0.31982421875;-0.000432159423828125;-0.319061279296875;3;;
685;;;;;;;8442.14130768564;-0.3173828125;-0.000420562744140625;-0.316650390625;3;;
686;;;;;;;8442.38544868503;-0.31494140625;-0.000408935546875;-0.314239501953125;3;;
687;;;;;;;8442.62958968441;-0.3125;-0.000397308349609375;-0.31170654296875;3;;
688;;;;;;;8442.87373068379;-0.31005859375;-0.0003857421875;-0.309326171875;3;;
689;;;;;;;8443.11787168318;-0.3076171875;-0.00037445068359375;-0.30694580078125;3;;
690;;;;;;;8443.36201268256;-0.30517578125;-0.0003631591796875;-0.304443359375;3;;
691;;;;;;;8443.60615368194;-0.302734375;-0.00035205078125;-0.301971435546875;3;;
692;;;;;;;8443.85029468133;-0.30029296875;-0.0003409423828125;-0.299560546875;3;;
693;;;;;;;8444.09443568071;-0.2978515625;-0.000329864501953125;-0.29718017578125;3;;
694;;;;;;;8444.33857668009;-0.29541015625;-0.000318939208984375;-0.294647216796875;3;;
695;;;;;;;8444.58271767948;-0.29296875;-0.00030804443359375;-0.292236328125;3;;
696;;;;;;;8444.82685867886;-0.29052734375;-0.000297271728515625;-0.289825439453125;3;;
697;;;;;;;8445.07099967825;-0.2880859375;-0.00028668212890625;-0.287384033203125;3;;
698;;;;;;;8445.31514067763;-0.28564453125;-0.00027630615234375;-0.284942626953125;3;;
699;;;;;;;8445.55928167701;-0.283203125;-0.0002659912109375;-0.282470703125;3;;
700;;;;;;;8445.8034226764;-0.28076171875;-0.000255767822265625;-0.28009033203125;3;;
701;;;;;;;8446.04756367578;-0.2783203125;-0.0002459716796875;-0.277618408203125;3;;
702;;;;;;;8446.29170467516;-0.27587890625;-0.000236358642578125;-0.275177001953125;3;;
703;;;;;;;8446.53584567455;-0.2734375;-0.000227081298828125;-0.272796630859375;3;;
704;;;;;;;8446.77998667393;-0.27099609375;-0.0002178955078125;-0.270355224609375;3;;
705;;;;;;;8447.02412767331;-0.2685546875;-0.000208984375;-0.267913818359375;3;;
706;;;;;;;8447.2682686727;-0.26611328125;-0.000200347900390625;-0.265472412109375;3;;
707;;;;;;;8447.51240967208;-0.263671875;-0.000191986083984375;-0.2630615234375;3;;
708;;;;;;;8447.75655067147;-0.26123046875;-0.000183868408203125;-0.260589599609375;3;;
709;;;;;;;8448.00069167085;-0.2587890625;-0.000176025390625;-0.258209228515625;3;;
710;;;;;;;8448.24483267023;-0.25634765625;-0.00016839599609375;-0.255706787109375;3;;
711;;;;;;;8448.48897366962;-0.25390625;-0.000161041259765625;-0.253265380859375;3;;
712;;;;;;;8448.733114669;-0.25146484375;-0.000153900146484375;-0.2508544921875;3;;
713;;;;;;;8448.97725566838;-0.2490234375;-0.000146942138671875;-0.248382568359375;3;;
714;;;;;;;8449.22139666777;-0.24658203125;-0.000140228271484375;-0.245941162109375;3;;
715;;;;;;;8449.46553766715;-0.244140625;-0.00013372802734375;-0.243560791015625;3;;
716;;;;;;;8449.70967866653;-0.24169921875;-0.000127471923828125;-0.24114990234375;3;;
717;;;;;;;8449.95381966592;-0.2392578125;-0.000121429443359375;-0.238739013671875;3;;
718;;;;;;;8450.1979606653;-0.23681640625;-0.0001156005859375;-0.2362060546875;3;;
719;;;;;;;8450.44210166468;-0.234375;-0.000109893798828125;-0.23382568359375;3;;
720;;;;;;;8450.68624266407;-0.23193359375;-0.000104583740234375;-0.23138427734375;3;;
721;;;;;;;8450.93038366345;-0.2294921875;-9.9456787109375E-05;-0.22894287109375;3;;
722;;;;;;;8451.17452466284;-0.22705078125;-9.454345703125E-05;-0.22650146484375;3;;
723;;;;;;;8451.41866566222;-0.224609375;-8.978271484375E-05;-0.224029541015625;3;;
724;;;;;;;8451.6628066616;-0.22216796875;-8.5296630859375E-05;-0.22161865234375;3;;
725;;;;;;;8451.90694766099;-0.2197265625;-8.099365234375E-05;-0.21917724609375;3;;
726;;;;;;;8452.15108866037;-0.21728515625;-7.6995849609375E-05;-0.216644287109375;3;;
727;;;;;;;8452.39522965975;-0.21484375;-7.305908203125E-05;-0.2142333984375;3;;
728;;;;;;;8452.63937065914;-0.21240234375;-6.9305419921875E-05;-0.2117919921875;3;;
729;;;;;;;8452.88351165852;-0.2099609375;-6.5765380859375E-05;-0.20941162109375;3;;
730;;;;;;;8453.1276526579;-0.20751953125;-6.23779296875E-05;-0.206939697265625;3;;
731;;;;;;;8453.37179365729;-0.205078125;-5.9112548828125E-05;-0.2044677734375;3;;
732;;;;;;;8453.61593465667;-0.20263671875;-5.596923828125E-05;-0.202056884765625;3;;
733;;;;;;;8453.86007565606;-0.2001953125;-5.303955078125E-05;-0.199615478515625;3;;
734;;;;;;;8454.10421665544;-0.19775390625;-5.023193359375E-05;-0.19720458984375;3;;
735;;;;;;;8454.34835765482;-0.1953125;-4.75860595703125E-05;-0.194793701171875;3;;
736;;;;;;;8454.59249865421;-0.19287109375;-4.50225830078125E-05;-0.192291259765625;3;;
737;;;;;;;8454.83663965359;-0.1904296875;-4.2572021484375E-05;-0.18994140625;3;;
738;;;;;;;8455.08078065297;-0.18798828125;-4.0264892578125E-05;-0.187530517578125;3;;
739;;;;;;;8455.32492165236;-0.185546875;-3.79974365234375E-05;-0.18505859375;3;;
740;;;;;;;8455.56906265174;-0.18310546875;-3.58917236328125E-05;-0.182647705078125;3;;
741;;;;;;;8455.81320365112;-0.1806640625;-3.38775634765625E-05;-0.180206298828125;3;;
742;;;;;;;8456.05734465051;-0.17822265625;-3.1976318359375E-05;-0.177734375;3;;
743;;;;;;;8456.30148564989;-0.17578125;-3.017578125E-05;-0.175262451171875;3;;
744;;;;;;;8456.54562664927;-0.17333984375;-2.84332275390625E-05;-0.1728515625;3;;
745;;;;;;;8456.78976764866;-0.1708984375;-2.68096923828125E-05;-0.17047119140625;3;;
746;;;;;;;8457.03390864804;-0.16845703125;-2.53173828125E-05;-0.167999267578125;3;;
747;;;;;;;8457.27804964743;-0.166015625;-2.3828125E-05;-0.16552734375;3;;
748;;;;;;;8457.52219064681;-0.16357421875;-2.24395751953125E-05;-0.163116455078125;3;;
749;;;;;;;8457.76633164619;-0.1611328125;-2.11029052734375E-05;-0.160614013671875;3;;
750;;;;;;;8458.01047264558;-0.15869140625;-1.9873046875E-05;-0.158233642578125;3;;
751;;;;;;;8458.25461364496;-0.15625;-1.86798095703125E-05;-0.15582275390625;3;;
752;;;;;;;8458.49875464434;-0.15380859375;-1.7523193359375E-05;-0.15338134765625;3;;
753;;;;;;;8458.74289564373;-0.1513671875;-1.64398193359375E-05;-0.150970458984375;3;;
754;;;;;;;8458.98703664311;-0.14892578125;-1.54205322265625E-05;-0.148529052734375;3;;
755;;;;;;;8459.23117764249;-0.146484375;-1.444091796875E-05;-0.1461181640625;3;;
756;;;;;;;8459.47531864188;-0.14404296875;-1.35040283203125E-05;-0.143646240234375;3;;
757;;;;;;;8459.71945964126;-0.1416015625;-1.26739501953125E-05;-0.1412353515625;3;;
758;;;;;;;8459.96360064065;-0.13916015625;-1.17889404296875E-05;-0.138763427734375;3;;
759;;;;;;;8460.20774164003;-0.13671875;-1.10382080078125E-05;-0.136322021484375;3;;
760;;;;;;;8460.45188263941;-0.13427734375;-1.026611328125E-05;-0.133880615234375;3;;
761;;;;;;;8460.6960236388;-0.1318359375;-9.539794921875E-06;-0.1314697265625;3;;
762;;;;;;;8460.94016463818;-0.12939453125;-8.868408203125E-06;-0.128997802734375;3;;
763;;;;;;;8461.18430563756;-0.126953125;-8.2244873046875E-06;-0.1265869140625;3;;
764;;;;;;;8461.42844663695;-0.12451171875;-7.6202392578125E-06;-0.124053955078125;3;;
765;;;;;;;8461.67258763633;-0.1220703125;-7.0526123046875E-06;-0.121673583984375;3;;
766;;;;;;;8461.91672863571;-0.11962890625;-6.500244140625E-06;-0.119171142578125;3;;
767;;;;;;;8462.1608696351;-0.1171875;-5.9967041015625E-06;-0.116729736328125;3;;
768;;;;;;;8462.40501063448;-0.11474609375;-5.487060546875E-06;-0.11431884765625;3;;
769;;;;;;;8462.64915163386;-0.1123046875;-5.0079345703125E-06;-0.111907958984375;3;;
770;;;;;;;8462.89329263325;-0.10986328125;-4.58984375E-06;-0.1094970703125;3;;
771;;;;;;;8463.13743363263;-0.107421875;-4.144287109375E-06;-0.107025146484375;3;;
772;;;;;;;8463.38157463202;-0.10498046875;-3.741455078125E-06;-0.1046142578125;3;;
773;;;;;;;8463.6257156314;-0.1025390625;-3.3758544921875E-06;-0.102142333984375;3;;
774;;;;;;;8463.86985663078;-0.10009765625;-3.00537109375E-06;-0.0997314453125;3;;
775;;;;;;;8464.11399763017;-0.09765625;-2.64678955078125E-06;-0.097320556640625;3;;
776;;;;;;;8464.35813862955;-0.09521484375;-2.31719970703125E-06;-0.094879150390625;3;;
777;;;;;;;8464.60227962893;-0.0927734375;-1.96807861328125E-06;-0.09246826171875;3;;
778;;;;;;;8464.84642062832;-0.09033203125;-1.663818359375E-06;-0.09002685546875;3;;
779;;;;;;;8465.0905616277;-0.087890625;-1.38702392578125E-06;-0.08758544921875;3;;
780;;;;;;;8465.33470262708;-0.08544921875;-1.10260009765625E-06;-0.085113525390625;3;;
781;;;;;;;8465.57884362647;-0.0830078125;-8.2855224609375E-07;-0.08270263671875;3;;
782;;;;;;;8465.82298462585;-0.08056640625;-5.6915283203125E-07;-0.080291748046875;3;;
783;;;;;;;8466.06712562524;-0.078125;-3.0029296875E-07;-0.077789306640625;3;;
784;;;;;;;8466.31126662462;-0.07568359375;-7.01904296875E-08;-0.07537841796875;3;;
785;;;;;;;8466.555407624;-0.0732421875;1.64794921875E-07;-0.072906494140625;3;;
786;;;;;;;8466.79954862339;-0.07080078125;3.6834716796875E-07;-0.070465087890625;3;;
787;;;;;;;8467.04368962277;-0.068359375;5.9539794921875E-07;-0.068145751953125;3;;
788;;;;;;;8467.28783062215;-0.06591796875;8.11767578125E-07;-0.065673828125;3;;
789;;;;;;;8467.53197162154;-0.0634765625;1.0028076171875E-06;-0.0633544921875;3;;
790;;;;;;;8467.77611262092;-0.06103515625;1.2158203125E-06;-0.0609130859375;3;;
791;;;;;;;8468.0202536203;-0.05859375;1.38458251953125E-06;-0.05853271484375;3;;
792;;;;;;;8468.26439461969;-0.05615234375;1.5692138671875E-06;-0.05609130859375;3;;
793;;;;;;;8468.50853561907;-0.0537109375;1.73828125E-06;-0.05364990234375;3;;
794;;;;;;;8468.75267661845;-0.05126953125;1.91650390625E-06;-0.05133056640625;3;;
795;;;;;;;8468.99681761784;-0.048828125;2.0965576171875E-06;-0.0485076904296875;3;;
796;;;;;;;8469.24095861722;-0.04638671875;2.22412109375E-06;-0.0460968017578125;3;;
797;;;;;;;8469.48509961661;-0.0439453125;2.36541748046875E-06;-0.0436737060546875;3;;
798;;;;;;;8469.72924061599;-0.04150390625;2.51434326171875E-06;-0.0412200927734375;3;;
799;;;;;;;8469.97338161537;-0.0390625;2.662353515625E-06;-0.03875732421875;3;;
800;;;;;;;8470.21752261476;-0.03662109375;2.784423828125E-06;-0.0363800048828125;3;;
801;;;;;;;8470.46166361414;-0.0341796875;2.904052734375E-06;-0.0338531494140625;3;;
802;;;;;;;8470.70580461352;-0.03173828125;3.0340576171875E-06;-0.0315643310546875;3;;
803;;;;;;;8470.94994561291;-0.029296875;3.12957763671875E-06;-0.028955078125;3;;
804;;;;;;;8471.19408661229;-0.02685546875;3.23089599609375E-06;-0.02652587890625;3;;
805;;;;;;;8471.43822761167;-0.0244140625;3.331298828125E-06;-0.0241241455078125;3;;
806;;;;;;;8471.68236861106;-0.02197265625;3.42498779296875E-06;-0.021685791015625;3;;
807;;;;;;;8471.92650961044;-0.01953125;3.50738525390625E-06;-0.01927490234375;3;;
808;;;;;;;8472.17065060983;-0.01708984375;3.61358642578125E-06;-0.0168304443359375;3;;
809;;;;;;;8472.41479160921;-0.0146484375;3.67828369140625E-06;-0.0143707275390625;3;;
810;;;;;;;8472.65893260859;-0.01220703125;3.778076171875E-06;-0.01195068359375;3;;
811;;;;;;;8472.90307360798;-0.009765625;3.8116455078125E-06;-0.0094879150390625;3;;
812;;;;;;;8473.14721460736;-0.00732421875;3.8604736328125E-06;-0.007080078125;3;;
813;;;;;;;8473.39135560674;-0.0048828125;3.91845703125E-06;-0.00465087890625;3;;
814;;;;;;;8473.63549660613;-0.00244140625;3.9703369140625E-06;-0.0022125244140625;3;;
815;;;;;;;8473.87963760551;0;4.0069580078125E-06;0.000247192382812497;3;;
816;;;;;;;8474.1237786049;0.00244140625;4.046630859375E-06;0.00267944335937501;3;;
817;;;;;;;8474.36791960428;0.0048828125;4.0435791015625E-06;0.00512084960937501;3;;
818;;;;;;;8474.61206060366;0.00732421875;4.052734375E-06;0.0075653076171875;3;;
819;;;;;;;8474.85620160304;0.009765625;4.0740966796875E-06;0.0100006103515625;3;;
820;;;;;;;8475.10034260243;0.01220703125;4.095458984375E-06;0.0124725341796875;3;;
821;;;;;;;8475.34448360181;0.009765625;3.57666015625E-06;0.0099945068359375;3;;
822;;;;;;;8475.5886246012;0.00732421875;3.2470703125E-06;0.0075836181640625;3;;
823;;;;;;;8475.83276560058;0.0048828125;2.92877197265625E-06;0.0051300048828125;3;;
824;;;;;;;8476.07690659996;0.00244140625;2.64892578125E-06;0.00266418457031251;3;;
825;;;;;;;8476.32104759935;0;2.40692138671875E-06;0.000234985351562494;3;;
826;;;;;;;8476.56518859873;-0.00244140625;2.213134765625E-06;-0.00220642089843751;3;;
827;;;;;;;8476.80932959811;-0.0048828125;1.9952392578125E-06;-0.00465087890625;3;;
828;;;;;;;8477.0534705975;-0.00732421875;1.84539794921875E-06;-0.0070831298828125;3;;
829;;;;;;;8477.29761159688;-0.009765625;1.6754150390625E-06;-0.0095184326171875;3;;
830;;;;;;;8477.54175259626;-0.01220703125;1.533203125E-06;-0.0119415283203125;3;;
831;;;;;;;;;;;;;
832;;;;;;;;;;;;;
833;;;;;;;;;;;;;
834;;;;;;;;;;;;;
835;;;;;;;;;;;;;
836;;;;;;;;;;;;;
837;;;;;;;;;;;;;
838;;;;;;;;;;;;;
839;;;;;;;;;;;;;
840;;;;;;;;;;;;;
841;;;;;;;;;;;;;
842;;;;;;;;;;;;;
843;;;;;;;;;;;;;
844;;;;;;;;;;;;;
845;;;;;;;;;;;;;
846;;;;;;;;;;;;;
847;;;;;;;;;;;;;
848;;;;;;;;;;;;;
849;;;;;;;;;;;;;
850;;;;;;;;;;;;;
851;;;;;;;;;;;;;
852;;;;;;;;;;;;;
853;;;;;;;;;;;;;
854;;;;;;;;;;;;;
855;;;;;;;;;;;;;
856;;;;;;;;;;;;;
857;;;;;;;;;;;;;
858;;;;;;;;;;;;;
859;;;;;;;;;;;;;
860;;;;;;;;;;;;;
861;;;;;;;;;;;;;
862;;;;;;;;;;;;;
863;;;;;;;;;;;;;
864;;;;;;;;;;;;;
865;;;;;;;;;;;;;
866;;;;;;;;;;;;;
867;;;;;;;;;;;;;
868;;;;;;;;;;;;;
869;;;;;;;;;;;;;
870;;;;;;;;;;;;;
871;;;;;;;;;;;;;
872;;;;;;;;;;;;;
873;;;;;;;;;;;;;
874;;;;;;;;;;;;;
875;;;;;;;;;;;;;
876;;;;;;;;;;;;;
877;;;;;;;;;;;;;
878;;;;;;;;;;;;;
879;;;;;;;;;;;;;
880;;;;;;;;;;;;;
881;;;;;;;;;;;;;
882;;;;;;;;;;;;;
883;;;;;;;;;;;;;
884;;;;;;;;;;;;;
885;;;;;;;;;;;;;
886;;;;;;;;;;;;;
887;;;;;;;;;;;;;
888;;;;;;;;;;;;;
889;;;;;;;;;;;;;
890;;;;;;;;;;;;;
891;;;;;;;;;;;;;
892;;;;;;;;;;;;;
893;;;;;;;;;;;;;
894;;;;;;;;;;;;;
895;;;;;;;;;;;;;
896;;;;;;;;;;;;;
897;;;;;;;;;;;;;
898;;;;;;;;;;;;;
899;;;;;;;;;;;;;
900;;;;;;;;;;;;;
901;;;;;;;;;;;;;
902;;;;;;;;;;;;;
903;;;;;;;;;;;;;
904;;;;;;;;;;;;;
905;;;;;;;;;;;;;
906;;;;;;;;;;;;;
907;;;;;;;;;;;;;
908;;;;;;;;;;;;;
909;;;;;;;;;;;;;
910;;;;;;;;;;;;;
911;;;;;;;;;;;;;
912;;;;;;;;;;;;;
913;;;;;;;;;;;;;
914;;;;;;;;;;;;;
915;;;;;;;;;;;;;
916;;;;;;;;;;;;;
917;;;;;;;;;;;;;
918;;;;;;;;;;;;;
919;;;;;;;;;;;;;
920;;;;;;;;;;;;;
921;;;;;;;;;;;;;
922;;;;;;;;;;;;;
923;;;;;;;;;;;;;
924;;;;;;;;;;;;;
925;;;;;;;;;;;;;
926;;;;;;;;;;;;;
927;;;;;;;;;;;;;
928;;;;;;;;;;;;;
929;;;;;;;;;;;;;
930;;;;;;;;;;;;;
931;;;;;;;;;;;;;
932;;;;;;;;;;;;;
933;;;;;;;;;;;;;
934;;;;;;;;;;;;;
935;;;;;;;;;;;;;
936;;;;;;;;;;;;;
937;;;;;;;;;;;;;
938;;;;;;;;;;;;;
939;;;;;;;;;;;;;
940;;;;;;;;;;;;;
941;;;;;;;;;;;;;
942;;;;;;;;;;;;;
943;;;;;;;;;;;;;
944;;;;;;;;;;;;;
945;;;;;;;;;;;;;
946;;;;;;;;;;;;;
947;;;;;;;;;;;;;
948;;;;;;;;;;;;;
949;;;;;;;;;;;;;
950;;;;;;;;;;;;;
951;;;;;;;;;;;;;
952;;;;;;;;;;;;;
953;;;;;;;;;;;;;
954;;;;;;;;;;;;;
955;;;;;;;;;;;;;
956;;;;;;;;;;;;;
957;;;;;;;;;;;;;
958;;;;;;;;;;;;;
959;;;;;;;;;;;;;
960;;;;;;;;;;;;;
961;;;;;;;;;;;;;
962;;;;;;;;;;;;;
963;;;;;;;;;;;;;
964;;;;;;;;;;;;;
965;;;;;;;;;;;;;
966;;;;;;;;;;;;;
967;;;;;;;;;;;;;
968;;;;;;;;;;;;;
969;;;;;;;;;;;;;
970;;;;;;;;;;;;;
971;;;;;;;;;;;;;
972;;;;;;;;;;;;;
973;;;;;;;;;;;;;
974;;;;;;;;;;;;;
975;;;;;;;;;;;;;
976;;;;;;;;;;;;;
977;;;;;;;;;;;;;
978;;;;;;;;;;;;;
979;;;;;;;;;;;;;
980;;;;;;;;;;;;;
981;;;;;;;;;;;;;
982;;;;;;;;;;;;;
983;;;;;;;;;;;;;
984;;;;;;;;;;;;;
985;;;;;;;;;;;;;
986;;;;;;;;;;;;;
987;;;;;;;;;;;;;
988;;;;;;;;;;;;;
989;;;;;;;;;;;;;
990;;;;;;;;;;;;;
991;;;;;;;;;;;;;
992;;;;;;;;;;;;;
993;;;;;;;;;;;;;
994;;;;;;;;;;;;;
995;;;;;;;;;;;;;
996;;;;;;;;;;;;;
997;;;;;;;;;;;;;
998;;;;;;;;;;;;;
999;;;;;;;;;;;;;
1000;;;;;;;;;;;;;
1001;;;;;;;;;;;;;
1002;;;;;;;;;;;;;
1003;;;;;;;;;;;;;
1004;;;;;;;;;;;;;
1005;;;;;;;;;;;;;
1006;;;;;;;;;;;;;
1007;;;;;;;;;;;;;
1008;;;;;;;;;;;;;
1009;;;;;;;;;;;;;
1010;;;;;;;;;;;;;
1011;;;;;;;;;;;;;
1012;;;;;;;;;;;;;
1013;;;;;;;;;;;;;
1014;;;;;;;;;;;;;
1015;;;;;;;;;;;;;
1016;;;;;;;;;;;;;
1017;;;;;;;;;;;;;
1018;;;;;;;;;;;;;
1019;;;;;;;;;;;;;
1020;;;;;;;;;;;;;
1021;;;;;;;;;;;;;
1022;;;;;;;;;;;;;
1023;;;;;;;;;;;;;
1024;;;;;;;;;;;;;
1025;;;;;;;;;;;;;
1026;;;;;;;;;;;;;
1027;;;;;;;;;;;;;
1028;;;;;;;;;;;;;
1029;;;;;;;;;;;;;
1030;;;;;;;;;;;;;
1031;;;;;;;;;;;;;
1032;;;;;;;;;;;;;
1033;;;;;;;;;;;;;
1034;;;;;;;;;;;;;
1035;;;;;;;;;;;;;
1036;;;;;;;;;;;;;
1037;;;;;;;;;;;;;
1038;;;;;;;;;;;;;
1039;;;;;;;;;;;;;
1040;;;;;;;;;;;;;
1041;;;;;;;;;;;;;
1042;;;;;;;;;;;;;
1043;;;;;;;;;;;;;
1044;;;;;;;;;;;;;
1045;;;;;;;;;;;;;
1046;;;;;;;;;;;;;
1047;;;;;;;;;;;;;
1048;;;;;;;;;;;;;
1049;;;;;;;;;;;;;
1050;;;;;;;;;;;;;
1051;;;;;;;;;;;;;
1052;;;;;;;;;;;;;
1053;;;;;;;;;;;;;
1054;;;;;;;;;;;;;
1055;;;;;;;;;;;;;
1056;;;;;;;;;;;;;
1057;;;;;;;;;;;;;
1058;;;;;;;;;;;;;
1059;;;;;;;;;;;;;
1060;;;;;;;;;;;;;
1061;;;;;;;;;;;;;
1062;;;;;;;;;;;;;
1063;;;;;;;;;;;;;
1064;;;;;;;;;;;;;
1065;;;;;;;;;;;;;
1066;;;;;;;;;;;;;
1067;;;;;;;;;;;;;
1068;;;;;;;;;;;;;
1069;;;;;;;;;;;;;
1070;;;;;;;;;;;;;
1071;;;;;;;;;;;;;
1072;;;;;;;;;;;;;
1073;;;;;;;;;;;;;
1074;;;;;;;;;;;;;
1075;;;;;;;;;;;;;
1076;;;;;;;;;;;;;
1077;;;;;;;;;;;;;
1078;;;;;;;;;;;;;
1079;;;;;;;;;;;;;
1080;;;;;;;;;;;;;
1081;;;;;;;;;;;;;
1082;;;;;;;;;;;;;
1083;;;;;;;;;;;;;
1084;;;;;;;;;;;;;
1085;;;;;;;;;;;;;
1086;;;;;;;;;;;;;
1087;;;;;;;;;;;;;
1088;;;;;;;;;;;;;
1089;;;;;;;;;;;;;
1090;;;;;;;;;;;;;
1091;;;;;;;;;;;;;
1092;;;;;;;;;;;;;
1093;;;;;;;;;;;;;
1094;;;;;;;;;;;;;
1095;;;;;;;;;;;;;
1096;;;;;;;;;;;;;
1097;;;;;;;;;;;;;
1098;;;;;;;;;;;;;
1099;;;;;;;;;;;;;
1100;;;;;;;;;;;;;
1101;;;;;;;;;;;;;
1102;;;;;;;;;;;;;
1103;;;;;;;;;;;;;
1104;;;;;;;;;;;;;
1105;;;;;;;;;;;;;
1106;;;;;;;;;;;;;
1107;;;;;;;;;;;;;
1108;;;;;;;;;;;;;
1109;;;;;;;;;;;;;
1110;;;;;;;;;;;;;
1111;;;;;;;;;;;;;
1112;;;;;;;;;;;;;
1113;;;;;;;;;;;;;
1114;;;;;;;;;;;;;
1115;;;;;;;;;;;;;
1116;;;;;;;;;;;;;
1117;;;;;;;;;;;;;
1118;;;;;;;;;;;;;
1119;;;;;;;;;;;;;
1120;;;;;;;;;;;;;
1121;;;;;;;;;;;;;
1122;;;;;;;;;;;;;
1123;;;;;;;;;;;;;
1124;;;;;;;;;;;;;
1125;;;;;;;;;;;;;
1126;;;;;;;;;;;;;
1127;;;;;;;;;;;;;
1128;;;;;;;;;;;;;
1129;;;;;;;;;;;;;
1130;;;;;;;;;;;;;
1131;;;;;;;;;;;;;
1132;;;;;;;;;;;;;
1133;;;;;;;;;;;;;
1134;;;;;;;;;;;;;
1135;;;;;;;;;;;;;
1136;;;;;;;;;;;;;
1137;;;;;;;;;;;;;
1138;;;;;;;;;;;;;
1139;;;;;;;;;;;;;
1140;;;;;;;;;;;;;
1141;;;;;;;;;;;;;
1142;;;;;;;;;;;;;
1143;;;;;;;;;;;;;
1144;;;;;;;;;;;;;
1145;;;;;;;;;;;;;
1146;;;;;;;;;;;;;
1147;;;;;;;;;;;;;
1148;;;;;;;;;;;;;
1149;;;;;;;;;;;;;
1150;;;;;;;;;;;;;
1151;;;;;;;;;;;;;
1152;;;;;;;;;;;;;
1153;;;;;;;;;;;;;
1154;;;;;;;;;;;;;
1155;;;;;;;;;;;;;
1156;;;;;;;;;;;;;
1157;;;;;;;;;;;;;
1158;;;;;;;;;;;;;
1159;;;;;;;;;;;;;
1160;;;;;;;;;;;;;
1161;;;;;;;;;;;;;
1162;;;;;;;;;;;;;
1163;;;;;;;;;;;;;
1164;;;;;;;;;;;;;
1165;;;;;;;;;;;;;
1166;;;;;;;;;;;;;
1167;;;;;;;;;;;;;
1168;;;;;;;;;;;;;
1169;;;;;;;;;;;;;
1170;;;;;;;;;;;;;
1171;;;;;;;;;;;;;
1172;;;;;;;;;;;;;
1173;;;;;;;;;;;;;
1174;;;;;;;;;;;;;
1175;;;;;;;;;;;;;
1176;;;;;;;;;;;;;
1177;;;;;;;;;;;;;
1178;;;;;;;;;;;;;
1179;;;;;;;;;;;;;
1180;;;;;;;;;;;;;
1181;;;;;;;;;;;;;
1182;;;;;;;;;;;;;
1183;;;;;;;;;;;;;
1184;;;;;;;;;;;;;
1185;;;;;;;;;;;;;
1186;;;;;;;;;;;;;
1187;;;;;;;;;;;;;
1188;;;;;;;;;;;;;
1189;;;;;;;;;;;;;
1190;;;;;;;;;;;;;
1191;;;;;;;;;;;;;
1192;;;;;;;;;;;;;
1193;;;;;;;;;;;;;
1194;;;;;;;;;;;;;
1195;;;;;;;;;;;;;
1196;;;;;;;;;;;;;
1197;;;;;;;;;;;;;
1198;;;;;;;;;;;;;
1199;;;;;;;;;;;;;
1200;;;;;;;;;;;;;
1201;;;;;;;;;;;;;
1202;;;;;;;;;;;;;
1203;;;;;;;;;;;;;
1204;;;;;;;;;;;;;
1205;;;;;;;;;;;;;
1206;;;;;;;;;;;;;
1207;;;;;;;;;;;;;
1208;;;;;;;;;;;;;
1209;;;;;;;;;;;;;
1210;;;;;;;;;;;;;
1211;;;;;;;;;;;;;
1212;;;;;;;;;;;;;
1213;;;;;;;;;;;;;
1214;;;;;;;;;;;;;
1215;;;;;;;;;;;;;
1216;;;;;;;;;;;;;
1217;;;;;;;;;;;;;
1218;;;;;;;;;;;;;
1219;;;;;;;;;;;;;
1220;;;;;;;;;;;;;
1221;;;;;;;;;;;;;
1222;;;;;;;;;;;;;
1223;;;;;;;;;;;;;
1224;;;;;;;;;;;;;
1225;;;;;;;;;;;;;
1226;;;;;;;;;;;;;
1227;;;;;;;;;;;;;
1228;;;;;;;;;;;;;
1229;;;;;;;;;;;;;
1230;;;;;;;;;;;;;
1231;;;;;;;;;;;;;
1232;;;;;;;;;;;;;
1233;;;;;;;;;;;;;
1234;;;;;;;;;;;;;
1235;;;;;;;;;;;;;
1236;;;;;;;;;;;;;
1237;;;;;;;;;;;;;
1238;;;;;;;;;;;;;
1239;;;;;;;;;;;;;
1240;;;;;;;;;;;;;
1241;;;;;;;;;;;;;
1242;;;;;;;;;;;;;
1243;;;;;;;;;;;;;
1244;;;;;;;;;;;;;
1245;;;;;;;;;;;;;
1246;;;;;;;;;;;;;
1247;;;;;;;;;;;;;
1248;;;;;;;;;;;;;
1249;;;;;;;;;;;;;
1250;;;;;;;;;;;;;
1251;;;;;;;;;;;;;
1252;;;;;;;;;;;;;
1253;;;;;;;;;;;;;
1254;;;;;;;;;;;;;
1255;;;;;;;;;;;;;
1256;;;;;;;;;;;;;
1257;;;;;;;;;;;;;
1258;;;;;;;;;;;;;
1259;;;;;;;;;;;;;
1260;;;;;;;;;;;;;
1261;;;;;;;;;;;;;
1262;;;;;;;;;;;;;
1263;;;;;;;;;;;;;
1264;;;;;;;;;;;;;
1265;;;;;;;;;;;;;
1266;;;;;;;;;;;;;
1267;;;;;;;;;;;;;
1268;;;;;;;;;;;;;
1269;;;;;;;;;;;;;
1270;;;;;;;;;;;;;
1271;;;;;;;;;;;;;
1272;;;;;;;;;;;;;
1273;;;;;;;;;;;;;
1274;;;;;;;;;;;;;
1275;;;;;;;;;;;;;
1276;;;;;;;;;;;;;
1277;;;;;;;;;;;;;
1278;;;;;;;;;;;;;
1279;;;;;;;;;;;;;
1280;;;;;;;;;;;;;
1281;;;;;;;;;;;;;
1282;;;;;;;;;;;;;
1283;;;;;;;;;;;;;
1284;;;;;;;;;;;;;
1285;;;;;;;;;;;;;
1286;;;;;;;;;;;;;
1287;;;;;;;;;;;;;
1288;;;;;;;;;;;;;
1289;;;;;;;;;;;;;
1290;;;;;;;;;;;;;
1291;;;;;;;;;;;;;
1292;;;;;;;;;;;;;
1293;;;;;;;;;;;;;
1294;;;;;;;;;;;;;
1295;;;;;;;;;;;;;
1296;;;;;;;;;;;;;
1297;;;;;;;;;;;;;
1298;;;;;;;;;;;;;
1299;;;;;;;;;;;;;
1300;;;;;;;;;;;;;
1301;;;;;;;;;;;;;
1302;;;;;;;;;;;;;
1303;;;;;;;;;;;;;
1304;;;;;;;;;;;;;
1305;;;;;;;;;;;;;
1306;;;;;;;;;;;;;
1307;;;;;;;;;;;;;
1308;;;;;;;;;;;;;
1309;;;;;;;;;;;;;
1310;;;;;;;;;;;;;
1311;;;;;;;;;;;;;
1312;;;;;;;;;;;;;
1313;;;;;;;;;;;;;
1314;;;;;;;;;;;;;
1315;;;;;;;;;;;;;
1316;;;;;;;;;;;;;
1317;;;;;;;;;;;;;
1318;;;;;;;;;;;;;
1319;;;;;;;;;;;;;
1320;;;;;;;;;;;;;
1321;;;;;;;;;;;;;
1322;;;;;;;;;;;;;
1323;;;;;;;;;;;;;
1324;;;;;;;;;;;;;
1325;;;;;;;;;;;;;
1326;;;;;;;;;;;;;
1327;;;;;;;;;;;;;
1328;;;;;;;;;;;;;
1329;;;;;;;;;;;;;
1330;;;;;;;;;;;;;
1331;;;;;;;;;;;;;
1332;;;;;;;;;;;;;
1333;;;;;;;;;;;;;
1334;;;;;;;;;;;;;
1335;;;;;;;;;;;;;
1336;;;;;;;;;;;;;
1337;;;;;;;;;;;;;
1338;;;;;;;;;;;;;
1339;;;;;;;;;;;;;
1340;;;;;;;;;;;;;
1341;;;;;;;;;;;;;
1342;;;;;;;;;;;;;
1343;;;;;;;;;;;;;
1344;;;;;;;;;;;;;
1345;;;;;;;;;;;;;
1346;;;;;;;;;;;;;
1347;;;;;;;;;;;;;
1348;;;;;;;;;;;;;
1349;;;;;;;;;;;;;
1350;;;;;;;;;;;;;
1351;;;;;;;;;;;;;
1352;;;;;;;;;;;;;
1353;;;;;;;;;;;;;
1354;;;;;;;;;;;;;
1355;;;;;;;;;;;;;
1356;;;;;;;;;;;;;
1357;;;;;;;;;;;;;
1358;;;;;;;;;;;;;
1359;;;;;;;;;;;;;
1360;;;;;;;;;;;;;
1361;;;;;;;;;;;;;
1362;;;;;;;;;;;;;
1363;;;;;;;;;;;;;
1364;;;;;;;;;;;;;
1365;;;;;;;;;;;;;
1366;;;;;;;;;;;;;
1367;;;;;;;;;;;;;
1368;;;;;;;;;;;;;
1369;;;;;;;;;;;;;
1370;;;;;;;;;;;;;
1371;;;;;;;;;;;;;
1372;;;;;;;;;;;;;
1373;;;;;;;;;;;;;
1374;;;;;;;;;;;;;
1375;;;;;;;;;;;;;
1376;;;;;;;;;;;;;
1377;;;;;;;;;;;;;
1378;;;;;;;;;;;;;
1379;;;;;;;;;;;;;
1380;;;;;;;;;;;;;
1381;;;;;;;;;;;;;
1382;;;;;;;;;;;;;
1383;;;;;;;;;;;;;
1384;;;;;;;;;;;;;
1385;;;;;;;;;;;;;
1386;;;;;;;;;;;;;
1387;;;;;;;;;;;;;
1388;;;;;;;;;;;;;
1389;;;;;;;;;;;;;
1390;;;;;;;;;;;;;
1391;;;;;;;;;;;;;
1392;;;;;;;;;;;;;
1393;;;;;;;;;;;;;
1394;;;;;;;;;;;;;
1395;;;;;;;;;;;;;
1396;;;;;;;;;;;;;
1397;;;;;;;;;;;;;
1398;;;;;;;;;;;;;
1399;;;;;;;;;;;;;
1400;;;;;;;;;;;;;
1401;;;;;;;;;;;;;
1402;;;;;;;;;;;;;
1403;;;;;;;;;;;;;
1404;;;;;;;;;;;;;
1405;;;;;;;;;;;;;
1406;;;;;;;;;;;;;
1407;;;;;;;;;;;;;
1408;;;;;;;;;;;;;
1409;;;;;;;;;;;;;
1410;;;;;;;;;;;;;
1411;;;;;;;;;;;;;
1412;;;;;;;;;;;;;
1413;;;;;;;;;;;;;
1414;;;;;;;;;;;;;
1415;;;;;;;;;;;;;
1416;;;;;;;;;;;;;
1417;;;;;;;;;;;;;
1418;;;;;;;;;;;;;
1419;;;;;;;;;;;;;
1420;;;;;;;;;;;;;
1421;;;;;;;;;;;;;
1422;;;;;;;;;;;;;
1423;;;;;;;;;;;;;
1424;;;;;;;;;;;;;
1425;;;;;;;;;;;;;
1426;;;;;;;;;;;;;
1427;;;;;;;;;;;;;
1428;;;;;;;;;;;;;
1429;;;;;;;;;;;;;
1430;;;;;;;;;;;;;
1431;;;;;;;;;;;;;
1432;;;;;;;;;;;;;
1433;;;;;;;;;;;;;
1434;;;;;;;;;;;;;
1435;;;;;;;;;;;;;
1436;;;;;;;;;;;;;
1437;;;;;;;;;;;;;
1438;;;;;;;;;;;;;
1439;;;;;;;;;;;;;
1440;;;;;;;;;;;;;
1441;;;;;;;;;;;;;
1442;;;;;;;;;;;;;
1443;;;;;;;;;;;;;
1444;;;;;;;;;;;;;
1445;;;;;;;;;;;;;
1446;;;;;;;;;;;;;
1447;;;;;;;;;;;;;
1448;;;;;;;;;;;;;
1449;;;;;;;;;;;;;
1450;;;;;;;;;;;;;
1451;;;;;;;;;;;;;
1452;;;;;;;;;;;;;
1453;;;;;;;;;;;;;
1454;;;;;;;;;;;;;
1455;;;;;;;;;;;;;
1456;;;;;;;;;;;;;
1457;;;;;;;;;;;;;
1458;;;;;;;;;;;;;
1459;;;;;;;;;;;;;
1460;;;;;;;;;;;;;
1461;;;;;;;;;;;;;
1462;;;;;;;;;;;;;
1463;;;;;;;;;;;;;
1464;;;;;;;;;;;;;
1465;;;;;;;;;;;;;
1466;;;;;;;;;;;;;
1467;;;;;;;;;;;;;
1468;;;;;;;;;;;;;
1469;;;;;;;;;;;;;
1470;;;;;;;;;;;;;
1471;;;;;;;;;;;;;
1472;;;;;;;;;;;;;
1473;;;;;;;;;;;;;
1474;;;;;;;;;;;;;
1475;;;;;;;;;;;;;
1476;;;;;;;;;;;;;
1477;;;;;;;;;;;;;
1478;;;;;;;;;;;;;
1479;;;;;;;;;;;;;
1480;;;;;;;;;;;;;
1481;;;;;;;;;;;;;
1482;;;;;;;;;;;;;
1483;;;;;;;;;;;;;
1484;;;;;;;;;;;;;
1485;;;;;;;;;;;;;
1486;;;;;;;;;;;;;
1487;;;;;;;;;;;;;
1488;;;;;;;;;;;;;
1489;;;;;;;;;;;;;
1490;;;;;;;;;;;;;
1491;;;;;;;;;;;;;
1492;;;;;;;;;;;;;
1493;;;;;;;;;;;;;
1494;;;;;;;;;;;;;
1495;;;;;;;;;;;;;
1496;;;;;;;;;;;;;
1497;;;;;;;;;;;;;
1498;;;;;;;;;;;;;
1499;;;;;;;;;;;;;
1500;;;;;;;;;;;;;
1501;;;;;;;;;;;;;
1502;;;;;;;;;;;;;
1503;;;;;;;;;;;;;
1504;;;;;;;;;;;;;
1505;;;;;;;;;;;;;
1506;;;;;;;;;;;;;
1507;;;;;;;;;;;;;
1508;;;;;;;;;;;;;
1509;;;;;;;;;;;;;
1510;;;;;;;;;;;;;
1511;;;;;;;;;;;;;
1512;;;;;;;;;;;;;
1513;;;;;;;;;;;;;
1514;;;;;;;;;;;;;
1515;;;;;;;;;;;;;
1516;;;;;;;;;;;;;
1517;;;;;;;;;;;;;
1518;;;;;;;;;;;;;
1519;;;;;;;;;;;;;
1520;;;;;;;;;;;;;
1521;;;;;;;;;;;;;
1522;;;;;;;;;;;;;
1523;;;;;;;;;;;;;
1524;;;;;;;;;;;;;
1525;;;;;;;;;;;;;
1526;;;;;;;;;;;;;
1527;;;;;;;;;;;;;
1528;;;;;;;;;;;;;
1529;;;;;;;;;;;;;
1530;;;;;;;;;;;;;
1531;;;;;;;;;;;;;
1532;;;;;;;;;;;;;
1533;;;;;;;;;;;;;
1534;;;;;;;;;;;;;
1535;;;;;;;;;;;;;
1536;;;;;;;;;;;;;
1537;;;;;;;;;;;;;
1538;;;;;;;;;;;;;
1539;;;;;;;;;;;;;
1540;;;;;;;;;;;;;
1541;;;;;;;;;;;;;
1542;;;;;;;;;;;;;
1543;;;;;;;;;;;;;
1544;;;;;;;;;;;;;
1545;;;;;;;;;;;;;
1546;;;;;;;;;;;;;
1547;;;;;;;;;;;;;
1548;;;;;;;;;;;;;
1549;;;;;;;;;;;;;
1550;;;;;;;;;;;;;
1551;;;;;;;;;;;;;
1552;;;;;;;;;;;;;
1553;;;;;;;;;;;;;
1554;;;;;;;;;;;;;
1555;;;;;;;;;;;;;
1556;;;;;;;;;;;;;
1557;;;;;;;;;;;;;
1558;;;;;;;;;;;;;
1559;;;;;;;;;;;;;
1560;;;;;;;;;;;;;
1561;;;;;;;;;;;;;
1562;;;;;;;;;;;;;
1563;;;;;;;;;;;;;
1564;;;;;;;;;;;;;
1565;;;;;;;;;;;;;
1566;;;;;;;;;;;;;
1567;;;;;;;;;;;;;
1568;;;;;;;;;;;;;
1569;;;;;;;;;;;;;
1570;;;;;;;;;;;;;
1571;;;;;;;;;;;;;
1572;;;;;;;;;;;;;
1573;;;;;;;;;;;;;
1574;;;;;;;;;;;;;
1575;;;;;;;;;;;;;
1576;;;;;;;;;;;;;
1577;;;;;;;;;;;;;
1578;;;;;;;;;;;;;
1579;;;;;;;;;;;;;
1580;;;;;;;;;;;;;
1581;;;;;;;;;;;;;
1582;;;;;;;;;;;;;
1583;;;;;;;;;;;;;
1584;;;;;;;;;;;;;
1585;;;;;;;;;;;;;
1586;;;;;;;;;;;;;
1587;;;;;;;;;;;;;
1588;;;;;;;;;;;;;
1589;;;;;;;;;;;;;
1590;;;;;;;;;;;;;
1591;;;;;;;;;;;;;
1592;;;;;;;;;;;;;
1593;;;;;;;;;;;;;
1594;;;;;;;;;;;;;
1595;;;;;;;;;;;;;
1596;;;;;;;;;;;;;
1597;;;;;;;;;;;;;
1598;;;;;;;;;;;;;
1599;;;;;;;;;;;;;
1600;;;;;;;;;;;;;
1601;;;;;;;;;;;;;
1602;;;;;;;;;;;;;
1603;;;;;;;;;;;;;
1604;;;;;;;;;;;;;
1605;;;;;;;;;;;;;
1606;;;;;;;;;;;;;
1607;;;;;;;;;;;;;
1608;;;;;;;;;;;;;
1609;;;;;;;;;;;;;
1610;;;;;;;;;;;;;
1611;;;;;;;;;;;;;
1612;;;;;;;;;;;;;
1613;;;;;;;;;;;;;
1614;;;;;;;;;;;;;
1615;;;;;;;;;;;;;
1616;;;;;;;;;;;;;
1617;;;;;;;;;;;;;
1618;;;;;;;;;;;;;
1619;;;;;;;;;;;;;
1620;;;;;;;;;;;;;
1621;;;;;;;;;;;;;
1622;;;;;;;;;;;;;
1623;;;;;;;;;;;;;
1624;;;;;;;;;;;;;
1625;;;;;;;;;;;;;
1626;;;;;;;;;;;;;
1627;;;;;;;;;;;;;
1628;;;;;;;;;;;;;
1629;;;;;;;;;;;;;
1630;;;;;;;;;;;;;
1631;;;;;;;;;;;;;
1632;;;;;;;;;;;;;
1633;;;;;;;;;;;;;
1634;;;;;;;;;;;;;
1635;;;;;;;;;;;;;
1636;;;;;;;;;;;;;
1637;;;;;;;;;;;;;
1638;;;;;;;;;;;;;
1639;;;;;;;;;;;;;
1640;;;;;;;;;;;;;
1641;;;;;;;;;;;;;
1642;;;;;;;;;;;;;
1643;;;;;;;;;;;;;
1644;;;;;;;;;;;;;
1645;;;;;;;;;;;;;
1646;;;;;;;;;;;;;
1647;;;;;;;;;;;;;
1648;;;;;;;;;;;;;
1649;;;;;;;;;;;;;
1650;;;;;;;;;;;;;
1651;;;;;;;;;;;;;
1652;;;;;;;;;;;;;
1653;;;;;;;;;;;;;
1654;;;;;;;;;;;;;
1655;;;;;;;;;;;;;
1656;;;;;;;;;;;;;
1657;;;;;;;;;;;;;
1658;;;;;;;;;;;;;
1659;;;;;;;;;;;;;
1660;;;;;;;;;;;;;
1661;;;;;;;;;;;;;
1662;;;;;;;;;;;;;
1663;;;;;;;;;;;;;
1664;;;;;;;;;;;;;
1665;;;;;;;;;;;;;
1666;;;;;;;;;;;;;
1667;;;;;;;;;;;;;
1668;;;;;;;;;;;;;
1669;;;;;;;;;;;;;
1670;;;;;;;;;;;;;
1671;;;;;;;;;;;;;
1672;;;;;;;;;;;;;
1673;;;;;;;;;;;;;
1674;;;;;;;;;;;;;
1675;;;;;;;;;;;;;
1676;;;;;;;;;;;;;
1677;;;;;;;;;;;;;
1678;;;;;;;;;;;;;
1679;;;;;;;;;;;;;
1680;;;;;;;;;;;;;
1681;;;;;;;;;;;;;
1682;;;;;;;;;;;;;
1683;;;;;;;;;;;;;
1684;;;;;;;;;;;;;
1685;;;;;;;;;;;;;
1686;;;;;;;;;;;;;
1687;;;;;;;;;;;;;
1688;;;;;;;;;;;;;
1689;;;;;;;;;;;;;
1690;;;;;;;;;;;;;
1691;;;;;;;;;;;;;
1692;;;;;;;;;;;;;
1693;;;;;;;;;;;;;
1694;;;;;;;;;;;;;
1695;;;;;;;;;;;;;
1696;;;;;;;;;;;;;
1697;;;;;;;;;;;;;
1698;;;;;;;;;;;;;
1699;;;;;;;;;;;;;
1700;;;;;;;;;;;;;
1701;;;;;;;;;;;;;
1702;;;;;;;;;;;;;
1703;;;;;;;;;;;;;
1704;;;;;;;;;;;;;
1705;;;;;;;;;;;;;
1706;;;;;;;;;;;;;
1707;;;;;;;;;;;;;
1708;;;;;;;;;;;;;
1709;;;;;;;;;;;;;
1710;;;;;;;;;;;;;
1711;;;;;;;;;;;;;
1712;;;;;;;;;;;;;
1713;;;;;;;;;;;;;
1714;;;;;;;;;;;;;
1715;;;;;;;;;;;;;
1716;;;;;;;;;;;;;
1717;;;;;;;;;;;;;
1718;;;;;;;;;;;;;
1719;;;;;;;;;;;;;
1720;;;;;;;;;;;;;
1721;;;;;;;;;;;;;
1722;;;;;;;;;;;;;
1723;;;;;;;;;;;;;
1724;;;;;;;;;;;;;
1725;;;;;;;;;;;;;
1726;;;;;;;;;;;;;
1727;;;;;;;;;;;;;
1728;;;;;;;;;;;;;
1729;;;;;;;;;;;;;
1730;;;;;;;;;;;;;
1731;;;;;;;;;;;;;
1732;;;;;;;;;;;;;
1733;;;;;;;;;;;;;
1734;;;;;;;;;;;;;
1735;;;;;;;;;;;;;
1736;;;;;;;;;;;;;
1737;;;;;;;;;;;;;
1738;;;;;;;;;;;;;
1739;;;;;;;;;;;;;
1740;;;;;;;;;;;;;
1741;;;;;;;;;;;;;
1742;;;;;;;;;;;;;
1743;;;;;;;;;;;;;
1744;;;;;;;;;;;;;
1745;;;;;;;;;;;;;
1746;;;;;;;;;;;;;
1747;;;;;;;;;;;;;
1748;;;;;;;;;;;;;
1749;;;;;;;;;;;;;
1750;;;;;;;;;;;;;
1751;;;;;;;;;;;;;
1752;;;;;;;;;;;;;
1753;;;;;;;;;;;;;
1754;;;;;;;;;;;;;
1755;;;;;;;;;;;;;
1756;;;;;;;;;;;;;
1757;;;;;;;;;;;;;
1758;;;;;;;;;;;;;
1759;;;;;;;;;;;;;
1760;;;;;;;;;;;;;
1761;;;;;;;;;;;;;
1762;;;;;;;;;;;;;
1763;;;;;;;;;;;;;
1764;;;;;;;;;;;;;
1765;;;;;;;;;;;;;
1766;;;;;;;;;;;;;
1767;;;;;;;;;;;;;
1768;;;;;;;;;;;;;
1769;;;;;;;;;;;;;
1770;;;;;;;;;;;;;
1771;;;;;;;;;;;;;
1772;;;;;;;;;;;;;
1773;;;;;;;;;;;;;
1774;;;;;;;;;;;;;
1775;;;;;;;;;;;;;
1776;;;;;;;;;;;;;
1777;;;;;;;;;;;;;
1778;;;;;;;;;;;;;
1779;;;;;;;;;;;;;
1780;;;;;;;;;;;;;
1781;;;;;;;;;;;;;
1782;;;;;;;;;;;;;
1783;;;;;;;;;;;;;
1784;;;;;;;;;;;;;
1785;;;;;;;;;;;;;
1786;;;;;;;;;;;;;
1787;;;;;;;;;;;;;
1788;;;;;;;;;;;;;
1789;;;;;;;;;;;;;
1790;;;;;;;;;;;;;
1791;;;;;;;;;;;;;
1792;;;;;;;;;;;;;
1793;;;;;;;;;;;;;
1794;;;;;;;;;;;;;
1795;;;;;;;;;;;;;
1796;;;;;;;;;;;;;
1797;;;;;;;;;;;;;
1798;;;;;;;;;;;;;
1799;;;;;;;;;;;;;
1800;;;;;;;;;;;;;
1801;;;;;;;;;;;;;
1802;;;;;;;;;;;;;
1803;;;;;;;;;;;;;
1804;;;;;;;;;;;;;
1805;;;;;;;;;;;;;
1806;;;;;;;;;;;;;
1807;;;;;;;;;;;;;
1808;;;;;;;;;;;;;
1809;;;;;;;;;;;;;
1810;;;;;;;;;;;;;
1811;;;;;;;;;;;;;
1812;;;;;;;;;;;;;
1813;;;;;;;;;;;;;
1814;;;;;;;;;;;;;
1815;;;;;;;;;;;;;
1816;;;;;;;;;;;;;
1817;;;;;;;;;;;;;
1818;;;;;;;;;;;;;
1819;;;;;;;;;;;;;
1820;;;;;;;;;;;;;
1821;;;;;;;;;;;;;
1822;;;;;;;;;;;;;
1823;;;;;;;;;;;;;
1824;;;;;;;;;;;;;
1825;;;;;;;;;;;;;
1826;;;;;;;;;;;;;
1827;;;;;;;;;;;;;
1828;;;;;;;;;;;;;
1829;;;;;;;;;;;;;
1830;;;;;;;;;;;;;
1831;;;;;;;;;;;;;
1832;;;;;;;;;;;;;
1833;;;;;;;;;;;;;
1834;;;;;;;;;;;;;
1835;;;;;;;;;;;;;
1836;;;;;;;;;;;;;
1837;;;;;;;;;;;;;
1838;;;;;;;;;;;;;
1839;;;;;;;;;;;;;
1840;;;;;;;;;;;;;
1841;;;;;;;;;;;;;
1842;;;;;;;;;;;;;
1843;;;;;;;;;;;;;
1844;;;;;;;;;;;;;
1845;;;;;;;;;;;;;
1846;;;;;;;;;;;;;
1847;;;;;;;;;;;;;
1848;;;;;;;;;;;;;
1849;;;;;;;;;;;;;
1850;;;;;;;;;;;;;
1851;;;;;;;;;;;;;
1852;;;;;;;;;;;;;
1853;;;;;;;;;;;;;
1854;;;;;;;;;;;;;
1855;;;;;;;;;;;;;
1856;;;;;;;;;;;;;
1857;;;;;;;;;;;;;
1858;;;;;;;;;;;;;
1859;;;;;;;;;;;;;
1860;;;;;;;;;;;;;
1861;;;;;;;;;;;;;
1862;;;;;;;;;;;;;
1863;;;;;;;;;;;;;
1864;;;;;;;;;;;;;
1865;;;;;;;;;;;;;
1866;;;;;;;;;;;;;
1867;;;;;;;;;;;;;
1868;;;;;;;;;;;;;
1869;;;;;;;;;;;;;
1870;;;;;;;;;;;;;
1871;;;;;;;;;;;;;
1872;;;;;;;;;;;;;
1873;;;;;;;;;;;;;
1874;;;;;;;;;;;;;
1875;;;;;;;;;;;;;
1876;;;;;;;;;;;;;
1877;;;;;;;;;;;;;
1878;;;;;;;;;;;;;
1879;;;;;;;;;;;;;
1880;;;;;;;;;;;;;
1881;;;;;;;;;;;;;
1882;;;;;;;;;;;;;
1883;;;;;;;;;;;;;
1884;;;;;;;;;;;;;
1885;;;;;;;;;;;;;
1886;;;;;;;;;;;;;
1887;;;;;;;;;;;;;
1888;;;;;;;;;;;;;
1889;;;;;;;;;;;;;
1890;;;;;;;;;;;;;
1891;;;;;;;;;;;;;
1892;;;;;;;;;;;;;
1893;;;;;;;;;;;;;
1894;;;;;;;;;;;;;
1895;;;;;;;;;;;;;
1896;;;;;;;;;;;;;
1897;;;;;;;;;;;;;
1898;;;;;;;;;;;;;
1899;;;;;;;;;;;;;
1900;;;;;;;;;;;;;
1901;;;;;;;;;;;;;
1902;;;;;;;;;;;;;
1903;;;;;;;;;;;;;
1904;;;;;;;;;;;;;
1905;;;;;;;;;;;;;
1906;;;;;;;;;;;;;
1907;;;;;;;;;;;;;
1908;;;;;;;;;;;;;
1909;;;;;;;;;;;;;
1910;;;;;;;;;;;;;
1911;;;;;;;;;;;;;
1912;;;;;;;;;;;;;
1913;;;;;;;;;;;;;
1914;;;;;;;;;;;;;
1915;;;;;;;;;;;;;
1916;;;;;;;;;;;;;
1917;;;;;;;;;;;;;
1918;;;;;;;;;;;;;
1919;;;;;;;;;;;;;
1920;;;;;;;;;;;;;
1921;;;;;;;;;;;;;
1922;;;;;;;;;;;;;
1923;;;;;;;;;;;;;
1924;;;;;;;;;;;;;
1925;;;;;;;;;;;;;
1926;;;;;;;;;;;;;
1927;;;;;;;;;;;;;
1928;;;;;;;;;;;;;
1929;;;;;;;;;;;;;
1930;;;;;;;;;;;;;
1931;;;;;;;;;;;;;
1932;;;;;;;;;;;;;
1933;;;;;;;;;;;;;
1934;;;;;;;;;;;;;
1935;;;;;;;;;;;;;
1936;;;;;;;;;;;;;
1937;;;;;;;;;;;;;
1938;;;;;;;;;;;;;
1939;;;;;;;;;;;;;
1940;;;;;;;;;;;;;
1941;;;;;;;;;;;;;
1942;;;;;;;;;;;;;
1943;;;;;;;;;;;;;
1944;;;;;;;;;;;;;
1945;;;;;;;;;;;;;
1946;;;;;;;;;;;;;
1947;;;;;;;;;;;;;
1948;;;;;;;;;;;;;
1949;;;;;;;;;;;;;
1950;;;;;;;;;;;;;
1951;;;;;;;;;;;;;
1952;;;;;;;;;;;;;
1953;;;;;;;;;;;;;
1954;;;;;;;;;;;;;
1955;;;;;;;;;;;;;
1956;;;;;;;;;;;;;
1957;;;;;;;;;;;;;
1958;;;;;;;;;;;;;
1959;;;;;;;;;;;;;
1960;;;;;;;;;;;;;
1961;;;;;;;;;;;;;
1962;;;;;;;;;;;;;
1963;;;;;;;;;;;;;
1964;;;;;;;;;;;;;
1965;;;;;;;;;;;;;
1966;;;;;;;;;;;;;
1967;;;;;;;;;;;;;
1968;;;;;;;;;;;;;
1969;;;;;;;;;;;;;
1970;;;;;;;;;;;;;
1971;;;;;;;;;;;;;
1972;;;;;;;;;;;;;
1973;;;;;;;;;;;;;
1974;;;;;;;;;;;;;
1975;;;;;;;;;;;;;
1976;;;;;;;;;;;;;
1977;;;;;;;;;;;;;
1978;;;;;;;;;;;;;
1979;;;;;;;;;;;;;
1980;;;;;;;;;;;;;
1981;;;;;;;;;;;;;
1982;;;;;;;;;;;;;
1983;;;;;;;;;;;;;
1984;;;;;;;;;;;;;
1985;;;;;;;;;;;;;
1986;;;;;;;;;;;;;
1987;;;;;;;;;;;;;
1988;;;;;;;;;;;;;
1989;;;;;;;;;;;;;
1990;;;;;;;;;;;;;
1991;;;;;;;;;;;;;
1992;;;;;;;;;;;;;
1993;;;;;;;;;;;;;
1994;;;;;;;;;;;;;
1995;;;;;;;;;;;;;
1996;;;;;;;;;;;;;
1997;;;;;;;;;;;;;
1998;;;;;;;;;;;;;
1999;;;;;;;;;;;;;
2000;;;;;;;;;;;;;
2001;;;;;;;;;;;;;
2002;;;;;;;;;;;;;
2003;;;;;;;;;;;;;
2004;;;;;;;;;;;;;
2005;;;;;;;;;;;;;
2006;;;;;;;;;;;;;
2007;;;;;;;;;;;;;
2008;;;;;;;;;;;;;
2009;;;;;;;;;;;;;
2010;;;;;;;;;;;;;
2011;;;;;;;;;;;;;
2012;;;;;;;;;;;;;
2013;;;;;;;;;;;;;
2014;;;;;;;;;;;;;
2015;;;;;;;;;;;;;
2016;;;;;;;;;;;;;
2017;;;;;;;;;;;;;
2018;;;;;;;;;;;;;
2019;;;;;;;;;;;;;
2020;;;;;;;;;;;;;
2021;;;;;;;;;;;;;
2022;;;;;;;;;;;;;
2023;;;;;;;;;;;;;
2024;;;;;;;;;;;;;
2025;;;;;;;;;;;;;
2026;;;;;;;;;;;;;
2027;;;;;;;;;;;;;
2028;;;;;;;;;;;;;
2029;;;;;;;;;;;;;
2030;;;;;;;;;;;;;
2031;;;;;;;;;;;;;
2032;;;;;;;;;;;;;
2033;;;;;;;;;;;;;
2034;;;;;;;;;;;;;
2035;;;;;;;;;;;;;
2036;;;;;;;;;;;;;
2037;;;;;;;;;;;;;
2038;;;;;;;;;;;;;
2039;;;;;;;;;;;;;
2040;;;;;;;;;;;;;
2041;;;;;;;;;;;;;
2042;;;;;;;;;;;;;
2043;;;;;;;;;;;;;
2044;;;;;;;;;;;;;
2045;;;;;;;;;;;;;
2046;;;;;;;;;;;;;
2047;;;;;;;;;;;;;
2048;;;;;;;;;;;;;
2049;;;;;;;;;;;;;
2050;;;;;;;;;;;;;
2051;;;;;;;;;;;;;
2052;;;;;;;;;;;;;
2053;;;;;;;;;;;;;
2054;;;;;;;;;;;;;
2055;;;;;;;;;;;;;
2056;;;;;;;;;;;;;
2057;;;;;;;;;;;;;
2058;;;;;;;;;;;;;
2059;;;;;;;;;;;;;
2060;;;;;;;;;;;;;
2061;;;;;;;;;;;;;
2062;;;;;;;;;;;;;
2063;;;;;;;;;;;;;
2064;;;;;;;;;;;;;
2065;;;;;;;;;;;;;
2066;;;;;;;;;;;;;
2067;;;;;;;;;;;;;
2068;;;;;;;;;;;;;
2069;;;;;;;;;;;;;
2070;;;;;;;;;;;;;
2071;;;;;;;;;;;;;
2072;;;;;;;;;;;;;
2073;;;;;;;;;;;;;
2074;;;;;;;;;;;;;
2075;;;;;;;;;;;;;
2076;;;;;;;;;;;;;
2077;;;;;;;;;;;;;
2078;;;;;;;;;;;;;
2079;;;;;;;;;;;;;
2080;;;;;;;;;;;;;
2081;;;;;;;;;;;;;
2082;;;;;;;;;;;;;
2083;;;;;;;;;;;;;
2084;;;;;;;;;;;;;
2085;;;;;;;;;;;;;
2086;;;;;;;;;;;;;
2087;;;;;;;;;;;;;
2088;;;;;;;;;;;;;
2089;;;;;;;;;;;;;
2090;;;;;;;;;;;;;
2091;;;;;;;;;;;;;
2092;;;;;;;;;;;;;
2093;;;;;;;;;;;;;
2094;;;;;;;;;;;;;
2095;;;;;;;;;;;;;
2096;;;;;;;;;;;;;
2097;;;;;;;;;;;;;
2098;;;;;;;;;;;;;
2099;;;;;;;;;;;;;
2100;;;;;;;;;;;;;
2101;;;;;;;;;;;;;
2102;;;;;;;;;;;;;
2103;;;;;;;;;;;;;
2104;;;;;;;;;;;;;
2105;;;;;;;;;;;;;
2106;;;;;;;;;;;;;
2107;;;;;;;;;;;;;
2108;;;;;;;;;;;;;
2109;;;;;;;;;;;;;
2110;;;;;;;;;;;;;
2111;;;;;;;;;;;;;
2112;;;;;;;;;;;;;
2113;;;;;;;;;;;;;
2114;;;;;;;;;;;;;
2115;;;;;;;;;;;;;
2116;;;;;;;;;;;;;
2117;;;;;;;;;;;;;
2118;;;;;;;;;;;;;
2119;;;;;;;;;;;;;
2120;;;;;;;;;;;;;
2121;;;;;;;;;;;;;
2122;;;;;;;;;;;;;
2123;;;;;;;;;;;;;
2124;;;;;;;;;;;;;
2125;;;;;;;;;;;;;
2126;;;;;;;;;;;;;
2127;;;;;;;;;;;;;
2128;;;;;;;;;;;;;
2129;;;;;;;;;;;;;
2130;;;;;;;;;;;;;
2131;;;;;;;;;;;;;
2132;;;;;;;;;;;;;
2133;;;;;;;;;;;;;
2134;;;;;;;;;;;;;
2135;;;;;;;;;;;;;
2136;;;;;;;;;;;;;
2137;;;;;;;;;;;;;
2138;;;;;;;;;;;;;
2139;;;;;;;;;;;;;
2140;;;;;;;;;;;;;
2141;;;;;;;;;;;;;
2142;;;;;;;;;;;;;
2143;;;;;;;;;;;;;
2144;;;;;;;;;;;;;
2145;;;;;;;;;;;;;
2146;;;;;;;;;;;;;
2147;;;;;;;;;;;;;
2148;;;;;;;;;;;;;
2149;;;;;;;;;;;;;
2150;;;;;;;;;;;;;
2151;;;;;;;;;;;;;
2152;;;;;;;;;;;;;
2153;;;;;;;;;;;;;
2154;;;;;;;;;;;;;
2155;;;;;;;;;;;;;
2156;;;;;;;;;;;;;
2157;;;;;;;;;;;;;
2158;;;;;;;;;;;;;
2159;;;;;;;;;;;;;
2160;;;;;;;;;;;;;
2161;;;;;;;;;;;;;
2162;;;;;;;;;;;;;
2163;;;;;;;;;;;;;
2164;;;;;;;;;;;;;
2165;;;;;;;;;;;;;
2166;;;;;;;;;;;;;
2167;;;;;;;;;;;;;
2168;;;;;;;;;;;;;
2169;;;;;;;;;;;;;
2170;;;;;;;;;;;;;
2171;;;;;;;;;;;;;
2172;;;;;;;;;;;;;
2173;;;;;;;;;;;;;
2174;;;;;;;;;;;;;
2175;;;;;;;;;;;;;
2176;;;;;;;;;;;;;
2177;;;;;;;;;;;;;
2178;;;;;;;;;;;;;
2179;;;;;;;;;;;;;
2180;;;;;;;;;;;;;
2181;;;;;;;;;;;;;
2182;;;;;;;;;;;;;
2183;;;;;;;;;;;;;
2184;;;;;;;;;;;;;
2185;;;;;;;;;;;;;
2186;;;;;;;;;;;;;
2187;;;;;;;;;;;;;
2188;;;;;;;;;;;;;
2189;;;;;;;;;;;;;
2190;;;;;;;;;;;;;
2191;;;;;;;;;;;;;
2192;;;;;;;;;;;;;
2193;;;;;;;;;;;;;
2194;;;;;;;;;;;;;
2195;;;;;;;;;;;;;
2196;;;;;;;;;;;;;
2197;;;;;;;;;;;;;
2198;;;;;;;;;;;;;
2199;;;;;;;;;;;;;
2200;;;;;;;;;;;;;
2201;;;;;;;;;;;;;
2202;;;;;;;;;;;;;
2203;;;;;;;;;;;;;
2204;;;;;;;;;;;;;
2205;;;;;;;;;;;;;
2206;;;;;;;;;;;;;
2207;;;;;;;;;;;;;
2208;;;;;;;;;;;;;
2209;;;;;;;;;;;;;
2210;;;;;;;;;;;;;
2211;;;;;;;;;;;;;
2212;;;;;;;;;;;;;
2213;;;;;;;;;;;;;
2214;;;;;;;;;;;;;
2215;;;;;;;;;;;;;
2216;;;;;;;;;;;;;
2217;;;;;;;;;;;;;
2218;;;;;;;;;;;;;
2219;;;;;;;;;;;;;
2220;;;;;;;;;;;;;
2221;;;;;;;;;;;;;
2222;;;;;;;;;;;;;
2223;;;;;;;;;;;;;
2224;;;;;;;;;;;;;
2225;;;;;;;;;;;;;
2226;;;;;;;;;;;;;
2227;;;;;;;;;;;;;
2228;;;;;;;;;;;;;
2229;;;;;;;;;;;;;
2230;;;;;;;;;;;;;
2231;;;;;;;;;;;;;
2232;;;;;;;;;;;;;
2233;;;;;;;;;;;;;
2234;;;;;;;;;;;;;
2235;;;;;;;;;;;;;
2236;;;;;;;;;;;;;
2237;;;;;;;;;;;;;
2238;;;;;;;;;;;;;
2239;;;;;;;;;;;;;
2240;;;;;;;;;;;;;
2241;;;;;;;;;;;;;
2242;;;;;;;;;;;;;
2243;;;;;;;;;;;;;
2244;;;;;;;;;;;;;
2245;;;;;;;;;;;;;
2246;;;;;;;;;;;;;
2247;;;;;;;;;;;;;
2248;;;;;;;;;;;;;
2249;;;;;;;;;;;;;
2250;;;;;;;;;;;;;
2251;;;;;;;;;;;;;
2252;;;;;;;;;;;;;
2253;;;;;;;;;;;;;
2254;;;;;;;;;;;;;
2255;;;;;;;;;;;;;
2256;;;;;;;;;;;;;
2257;;;;;;;;;;;;;
2258;;;;;;;;;;;;;
2259;;;;;;;;;;;;;
2260;;;;;;;;;;;;;
2261;;;;;;;;;;;;;
2262;;;;;;;;;;;;;
2263;;;;;;;;;;;;;
2264;;;;;;;;;;;;;
2265;;;;;;;;;;;;;
2266;;;;;;;;;;;;;
2267;;;;;;;;;;;;;
2268;;;;;;;;;;;;;
2269;;;;;;;;;;;;;
2270;;;;;;;;;;;;;
2271;;;;;;;;;;;;;
2272;;;;;;;;;;;;;
2273;;;;;;;;;;;;;
2274;;;;;;;;;;;;;
2275;;;;;;;;;;;;;
2276;;;;;;;;;;;;;
2277;;;;;;;;;;;;;
2278;;;;;;;;;;;;;
2279;;;;;;;;;;;;;
2280;;;;;;;;;;;;;
2281;;;;;;;;;;;;;
2282;;;;;;;;;;;;;
2283;;;;;;;;;;;;;
2284;;;;;;;;;;;;;
2285;;;;;;;;;;;;;
2286;;;;;;;;;;;;;
2287;;;;;;;;;;;;;
2288;;;;;;;;;;;;;
2289;;;;;;;;;;;;;
2290;;;;;;;;;;;;;
2291;;;;;;;;;;;;;
2292;;;;;;;;;;;;;
2293;;;;;;;;;;;;;
2294;;;;;;;;;;;;;
2295;;;;;;;;;;;;;
2296;;;;;;;;;;;;;
2297;;;;;;;;;;;;;
2298;;;;;;;;;;;;;
2299;;;;;;;;;;;;;
2300;;;;;;;;;;;;;
2301;;;;;;;;;;;;;
2302;;;;;;;;;;;;;
2303;;;;;;;;;;;;;
2304;;;;;;;;;;;;;
2305;;;;;;;;;;;;;
2306;;;;;;;;;;;;;
2307;;;;;;;;;;;;;
2308;;;;;;;;;;;;;
2309;;;;;;;;;;;;;
2310;;;;;;;;;;;;;
2311;;;;;;;;;;;;;
2312;;;;;;;;;;;;;
2313;;;;;;;;;;;;;
2314;;;;;;;;;;;;;
2315;;;;;;;;;;;;;
2316;;;;;;;;;;;;;
2317;;;;;;;;;;;;;
2318;;;;;;;;;;;;;
2319;;;;;;;;;;;;;
2320;;;;;;;;;;;;;
2321;;;;;;;;;;;;;
2322;;;;;;;;;;;;;
2323;;;;;;;;;;;;;
2324;;;;;;;;;;;;;
2325;;;;;;;;;;;;;
2326;;;;;;;;;;;;;
2327;;;;;;;;;;;;;
2328;;;;;;;;;;;;;
2329;;;;;;;;;;;;;
2330;;;;;;;;;;;;;
2331;;;;;;;;;;;;;
2332;;;;;;;;;;;;;
2333;;;;;;;;;;;;;
2334;;;;;;;;;;;;;
2335;;;;;;;;;;;;;
2336;;;;;;;;;;;;;
2337;;;;;;;;;;;;;
2338;;;;;;;;;;;;;
2339;;;;;;;;;;;;;
2340;;;;;;;;;;;;;
2341;;;;;;;;;;;;;
2342;;;;;;;;;;;;;
2343;;;;;;;;;;;;;
2344;;;;;;;;;;;;;
2345;;;;;;;;;;;;;
2346;;;;;;;;;;;;;
2347;;;;;;;;;;;;;
2348;;;;;;;;;;;;;
2349;;;;;;;;;;;;;
2350;;;;;;;;;;;;;
2351;;;;;;;;;;;;;
2352;;;;;;;;;;;;;
2353;;;;;;;;;;;;;
2354;;;;;;;;;;;;;
2355;;;;;;;;;;;;;
2356;;;;;;;;;;;;;
2357;;;;;;;;;;;;;
2358;;;;;;;;;;;;;
2359;;;;;;;;;;;;;
2360;;;;;;;;;;;;;
2361;;;;;;;;;;;;;
2362;;;;;;;;;;;;;
2363;;;;;;;;;;;;;
2364;;;;;;;;;;;;;
2365;;;;;;;;;;;;;
2366;;;;;;;;;;;;;
2367;;;;;;;;;;;;;
2368;;;;;;;;;;;;;
2369;;;;;;;;;;;;;
2370;;;;;;;;;;;;;
2371;;;;;;;;;;;;;
2372;;;;;;;;;;;;;
2373;;;;;;;;;;;;;
2374;;;;;;;;;;;;;
2375;;;;;;;;;;;;;
2376;;;;;;;;;;;;;
2377;;;;;;;;;;;;;
2378;;;;;;;;;;;;;
2379;;;;;;;;;;;;;
2380;;;;;;;;;;;;;
2381;;;;;;;;;;;;;
2382;;;;;;;;;;;;;
2383;;;;;;;;;;;;;
2384;;;;;;;;;;;;;
2385;;;;;;;;;;;;;
2386;;;;;;;;;;;;;
2387;;;;;;;;;;;;;
2388;;;;;;;;;;;;;
2389;;;;;;;;;;;;;
2390;;;;;;;;;;;;;
2391;;;;;;;;;;;;;
2392;;;;;;;;;;;;;
2393;;;;;;;;;;;;;
2394;;;;;;;;;;;;;
2395;;;;;;;;;;;;;
2396;;;;;;;;;;;;;
2397;;;;;;;;;;;;;
2398;;;;;;;;;;;;;
2399;;;;;;;;;;;;;
2400;;;;;;;;;;;;;
2401;;;;;;;;;;;;;
2402;;;;;;;;;;;;;
2403;;;;;;;;;;;;;
2404;;;;;;;;;;;;;
2405;;;;;;;;;;;;;
2406;;;;;;;;;;;;;
2407;;;;;;;;;;;;;
2408;;;;;;;;;;;;;
2409;;;;;;;;;;;;;
2410;;;;;;;;;;;;;
2411;;;;;;;;;;;;;
2412;;;;;;;;;;;;;
2413;;;;;;;;;;;;;
2414;;;;;;;;;;;;;
2415;;;;;;;;;;;;;
2416;;;;;;;;;;;;;
2417;;;;;;;;;;;;;
2418;;;;;;;;;;;;;
2419;;;;;;;;;;;;;
2420;;;;;;;;;;;;;
2421;;;;;;;;;;;;;
2422;;;;;;;;;;;;;
2423;;;;;;;;;;;;;
2424;;;;;;;;;;;;;
2425;;;;;;;;;;;;;
2426;;;;;;;;;;;;;
2427;;;;;;;;;;;;;
2428;;;;;;;;;;;;;
2429;;;;;;;;;;;;;
2430;;;;;;;;;;;;;
2431;;;;;;;;;;;;;
2432;;;;;;;;;;;;;
2433;;;;;;;;;;;;;
2434;;;;;;;;;;;;;
2435;;;;;;;;;;;;;
2436;;;;;;;;;;;;;
2437;;;;;;;;;;;;;
2438;;;;;;;;;;;;;
2439;;;;;;;;;;;;;
2440;;;;;;;;;;;;;
2441;;;;;;;;;;;;;
2442;;;;;;;;;;;;;
2443;;;;;;;;;;;;;
2444;;;;;;;;;;;;;
2445;;;;;;;;;;;;;
2446;;;;;;;;;;;;;
2447;;;;;;;;;;;;;
2448;;;;;;;;;;;;;
2449;;;;;;;;;;;;;
2450;;;;;;;;;;;;;
2451;;;;;;;;;;;;;
2452;;;;;;;;;;;;;
2453;;;;;;;;;;;;;
2454;;;;;;;;;;;;;
2455;;;;;;;;;;;;;
2456;;;;;;;;;;;;;
2457;;;;;;;;;;;;;
2458;;;;;;;;;;;;;
2459;;;;;;;;;;;;;
2460;;;;;;;;;;;;;
2461;;;;;;;;;;;;;
2462;;;;;;;;;;;;;
2463;;;;;;;;;;;;;
2464;;;;;;;;;;;;;
2465;;;;;;;;;;;;;
2466;;;;;;;;;;;;;
2467;;;;;;;;;;;;;
2468;;;;;;;;;;;;;
2469;;;;;;;;;;;;;
2470;;;;;;;;;;;;;
2471;;;;;;;;;;;;;
2472;;;;;;;;;;;;;
2473;;;;;;;;;;;;;
2474;;;;;;;;;;;;;
2475;;;;;;;;;;;;;
2476;;;;;;;;;;;;;
2477;;;;;;;;;;;;;
2478;;;;;;;;;;;;;
2479;;;;;;;;;;;;;
2480;;;;;;;;;;;;;
2481;;;;;;;;;;;;;
2482;;;;;;;;;;;;;
2483;;;;;;;;;;;;;
2484;;;;;;;;;;;;;
2485;;;;;;;;;;;;;
2486;;;;;;;;;;;;;
2487;;;;;;;;;;;;;
2488;;;;;;;;;;;;;
2489;;;;;;;;;;;;;
2490;;;;;;;;;;;;;
2491;;;;;;;;;;;;;
2492;;;;;;;;;;;;;
2493;;;;;;;;;;;;;
2494;;;;;;;;;;;;;
2495;;;;;;;;;;;;;
