
Index;Column 2 (V);Column 3 (V);Column 4 (V);Column 5 (V);Column 6 (V/s);Column 7 (V);Time (s);Potential applied (V);WE(1).Current (A);WE(1).Potential (V);Scan;Column 13 (RPM);ω (rad/s)
1;0;0.01;-1;-0.01;0.01;-0.00244;5811.89097632639;-0.0146484375;4.632568359375E-06;-0.0144012451171875;3;250;26.1799387799149
2;;;;;;;5812.13511732577;-0.01708984375;4.23583984375E-06;-0.016827392578125;3;;
3;;;;;;;5812.37925832515;-0.01953125;3.8665771484375E-06;-0.0192718505859375;3;;
4;;;;;;;5812.62339932454;-0.02197265625;3.54461669921875E-06;-0.02171630859375;3;;
5;;;;;;;5812.86754032392;-0.0244140625;3.23089599609375E-06;-0.02413330078125;3;;
6;;;;;;;5813.1116813233;-0.02685546875;2.95745849609375E-06;-0.0264892578125;3;;
7;;;;;;;5813.35582232269;-0.029296875;2.66448974609375E-06;-0.029010009765625;3;;
8;;;;;;;5813.59996332207;-0.03173828125;2.40478515625E-06;-0.0314300537109375;3;;
9;;;;;;;5813.84410432145;-0.0341796875;2.1533203125E-06;-0.0339447021484375;3;;
10;;;;;;;5814.08824532084;-0.03662109375;1.93115234375E-06;-0.0363311767578125;3;;
11;;;;;;;5814.33238632022;-0.0390625;1.71539306640625E-06;-0.038763427734375;3;;
12;;;;;;;5814.57652731961;-0.04150390625;1.51702880859375E-06;-0.0411773681640625;3;;
13;;;;;;;5814.82066831899;-0.0439453125;1.2994384765625E-06;-0.043621826171875;3;;
14;;;;;;;5815.06480931837;-0.04638671875;1.13922119140625E-06;-0.0460357666015625;3;;
15;;;;;;;5815.30895031776;-0.048828125;9.7564697265625E-07;-0.048486328125;3;;
16;;;;;;;5815.55309131714;-0.05126953125;8.038330078125E-07;-0.05108642578125;3;;
17;;;;;;;5815.79723231652;-0.0537109375;6.31103515625E-07;-0.053497314453125;3;;
18;;;;;;;5816.04137331591;-0.05615234375;4.8858642578125E-07;-0.055908203125;3;;
19;;;;;;;5816.28551431529;-0.05859375;3.28369140625E-07;-0.05828857421875;3;;
20;;;;;;;5816.52965531467;-0.06103515625;1.7822265625E-07;-0.060821533203125;3;;
21;;;;;;;5816.77379631406;-0.0634765625;5.523681640625E-08;-0.063201904296875;3;;
22;;;;;;;5817.01793731344;-0.06591796875;-8.85009765625E-08;-0.065643310546875;3;;
23;;;;;;;5817.26207831283;-0.068359375;-2.0477294921875E-07;-0.068115234375;3;;
24;;;;;;;5817.50621931221;-0.07080078125;-3.7200927734375E-07;-0.070465087890625;3;;
25;;;;;;;5817.75036031159;-0.0732421875;-5.169677734375E-07;-0.072967529296875;3;;
26;;;;;;;5817.99450131098;-0.07568359375;-6.6375732421875E-07;-0.075408935546875;3;;
27;;;;;;;5818.23864231036;-0.078125;-8.1085205078125E-07;-0.07763671875;3;;
28;;;;;;;5818.48278330974;-0.08056640625;-9.539794921875E-07;-0.080230712890625;3;;
29;;;;;;;5818.72692430913;-0.0830078125;-1.10321044921875E-06;-0.082672119140625;3;;
30;;;;;;;5818.97106530851;-0.08544921875;-1.2567138671875E-06;-0.0849609375;3;;
31;;;;;;;5819.21520630789;-0.087890625;-1.41204833984375E-06;-0.08734130859375;3;;
32;;;;;;;5819.45934730728;-0.09033203125;-1.575927734375E-06;-0.089813232421875;3;;
33;;;;;;;5819.70348830666;-0.0927734375;-1.74102783203125E-06;-0.092132568359375;3;;
34;;;;;;;5819.94762930605;-0.09521484375;-1.9244384765625E-06;-0.094696044921875;3;;
35;;;;;;;5820.19177030543;-0.09765625;-2.108154296875E-06;-0.097137451171875;3;;
36;;;;;;;5820.43591130481;-0.10009765625;-2.28271484375E-06;-0.099456787109375;3;;
37;;;;;;;5820.6800523042;-0.1025390625;-2.4951171875E-06;-0.101806640625;3;;
38;;;;;;;5820.92419330358;-0.10498046875;-2.72247314453125E-06;-0.104278564453125;3;;
39;;;;;;;5821.16833430296;-0.107421875;-2.94403076171875E-06;-0.106719970703125;3;;
40;;;;;;;5821.41247530235;-0.10986328125;-3.197021484375E-06;-0.109130859375;3;;
41;;;;;;;5821.65661630173;-0.1123046875;-3.46099853515625E-06;-0.111968994140625;3;;
42;;;;;;;5821.90075730111;-0.11474609375;-3.70086669921875E-06;-0.1143798828125;3;;
43;;;;;;;5822.1448983005;-0.1171875;-3.9794921875E-06;-0.116790771484375;3;;
44;;;;;;;5822.38903929988;-0.11962890625;-4.2816162109375E-06;-0.11920166015625;3;;
45;;;;;;;5822.63318029926;-0.1220703125;-4.608154296875E-06;-0.1217041015625;3;;
46;;;;;;;5822.87732129865;-0.12451171875;-4.937744140625E-06;-0.124114990234375;3;;
47;;;;;;;5823.12146229803;-0.126953125;-5.303955078125E-06;-0.126495361328125;3;;
48;;;;;;;5823.36560329742;-0.12939453125;-5.6854248046875E-06;-0.128997802734375;3;;
49;;;;;;;5823.6097442968;-0.1318359375;-6.0699462890625E-06;-0.13140869140625;3;;
50;;;;;;;5823.85388529618;-0.13427734375;-6.50634765625E-06;-0.133819580078125;3;;
51;;;;;;;5824.09802629557;-0.13671875;-6.9580078125E-06;-0.13629150390625;3;;
52;;;;;;;5824.34216729495;-0.13916015625;-7.4493408203125E-06;-0.13873291015625;3;;
53;;;;;;;5824.58630829433;-0.1416015625;-7.94677734375E-06;-0.141143798828125;3;;
54;;;;;;;5824.83044929372;-0.14404296875;-8.48388671875E-06;-0.143585205078125;3;;
55;;;;;;;5825.0745902931;-0.146484375;-9.0789794921875E-06;-0.14599609375;3;;
56;;;;;;;5825.31873129248;-0.14892578125;-9.66796875E-06;-0.1484375;3;;
57;;;;;;;5825.56287229187;-0.1513671875;-1.0345458984375E-05;-0.150848388671875;3;;
58;;;;;;;5825.80701329125;-0.15380859375;-1.1029052734375E-05;-0.153289794921875;3;;
59;;;;;;;5826.05115429064;-0.15625;-1.175537109375E-05;-0.15576171875;3;;
60;;;;;;;5826.29529529002;-0.15869140625;-1.2542724609375E-05;-0.15814208984375;3;;
61;;;;;;;5826.5394362894;-0.1611328125;-1.3348388671875E-05;-0.16058349609375;3;;
62;;;;;;;5826.78357728879;-0.16357421875;-1.41998291015625E-05;-0.163055419921875;3;;
63;;;;;;;5827.02771828817;-0.166015625;-1.5155029296875E-05;-0.165435791015625;3;;
64;;;;;;;5827.27185928755;-0.16845703125;-1.60980224609375E-05;-0.167816162109375;3;;
65;;;;;;;5827.51600028694;-0.1708984375;-1.71417236328125E-05;-0.1702880859375;3;;
66;;;;;;;5827.76014128632;-0.17333984375;-1.82525634765625E-05;-0.172698974609375;3;;
67;;;;;;;5828.0042822857;-0.17578125;-1.93939208984375E-05;-0.175140380859375;3;;
68;;;;;;;5828.24842328509;-0.17822265625;-2.061767578125E-05;-0.177520751953125;3;;
69;;;;;;;5828.49256428447;-0.1806640625;-2.1929931640625E-05;-0.179931640625;3;;
70;;;;;;;5828.73670528385;-0.18310546875;-2.327880859375E-05;-0.18243408203125;3;;
71;;;;;;;5828.98084628324;-0.185546875;-2.47528076171875E-05;-0.184783935546875;3;;
72;;;;;;;5829.22498728262;-0.18798828125;-2.62542724609375E-05;-0.187225341796875;3;;
73;;;;;;;5829.469128282;-0.1904296875;-2.78717041015625E-05;-0.1895751953125;3;;
74;;;;;;;5829.71326928139;-0.19287109375;-2.95867919921875E-05;-0.19207763671875;3;;
75;;;;;;;5829.95741028077;-0.1953125;-3.1427001953125E-05;-0.194427490234375;3;;
76;;;;;;;5830.20155128016;-0.19775390625;-3.32855224609375E-05;-0.197235107421875;3;;
77;;;;;;;5830.44569227954;-0.2001953125;-3.531494140625E-05;-0.19964599609375;3;;
78;;;;;;;5830.68983327892;-0.20263671875;-3.7445068359375E-05;-0.202117919921875;3;;
79;;;;;;;5830.93397427831;-0.205078125;-3.97003173828125E-05;-0.204559326171875;3;;
80;;;;;;;5831.17811527769;-0.20751953125;-4.207763671875E-05;-0.2069091796875;3;;
81;;;;;;;5831.42225627707;-0.2099609375;-4.46044921875E-05;-0.209381103515625;3;;
82;;;;;;;5831.66639727646;-0.21240234375;-4.72381591796875E-05;-0.211822509765625;3;;
83;;;;;;;5831.91053827584;-0.21484375;-5.0048828125E-05;-0.214202880859375;3;;
84;;;;;;;5832.15467927523;-0.21728515625;-5.2978515625E-05;-0.216705322265625;3;;
85;;;;;;;5832.39882027461;-0.2197265625;-5.609130859375E-05;-0.219146728515625;3;;
86;;;;;;;5832.64296127399;-0.22216796875;-5.938720703125E-05;-0.2215576171875;3;;
87;;;;;;;5832.88710227338;-0.224609375;-6.28662109375E-05;-0.2239990234375;3;;
88;;;;;;;5833.13124327276;-0.22705078125;-6.65283203125E-05;-0.226409912109375;3;;
89;;;;;;;5833.37538427214;-0.2294921875;-7.0404052734375E-05;-0.2288818359375;3;;
90;;;;;;;5833.61952527153;-0.23193359375;-7.4493408203125E-05;-0.2313232421875;3;;
91;;;;;;;5833.86366627091;-0.234375;-7.8826904296875E-05;-0.233734130859375;3;;
92;;;;;;;5834.10780727029;-0.23681640625;-8.3343505859375E-05;-0.2362060546875;3;;
93;;;;;;;5834.35194826968;-0.2392578125;-8.8104248046875E-05;-0.238616943359375;3;;
94;;;;;;;5834.59608926906;-0.24169921875;-9.31396484375E-05;-0.241058349609375;3;;
95;;;;;;;5834.84023026844;-0.244140625;-9.8419189453125E-05;-0.24346923828125;3;;
96;;;;;;;5835.08437126783;-0.24658203125;-0.000103973388671875;-0.245941162109375;3;;
97;;;;;;;5835.32851226721;-0.2490234375;-0.00010986328125;-0.248321533203125;3;;
98;;;;;;;5835.5726532666;-0.25146484375;-0.000116058349609375;-0.250762939453125;3;;
99;;;;;;;5835.81679426598;-0.25390625;-0.00012249755859375;-0.253204345703125;3;;
100;;;;;;;5836.06093526536;-0.25634765625;-0.000129302978515625;-0.255615234375;3;;
101;;;;;;;5836.30507626475;-0.2587890625;-0.000136444091796875;-0.258056640625;3;;
102;;;;;;;5836.54921726413;-0.26123046875;-0.000143890380859375;-0.26043701171875;3;;
103;;;;;;;5836.79335826351;-0.263671875;-0.0001517333984375;-0.262908935546875;3;;
104;;;;;;;5837.0374992629;-0.26611328125;-0.000159912109375;-0.26531982421875;3;;
105;;;;;;;5837.28164026228;-0.2685546875;-0.00016851806640625;-0.267730712890625;3;;
106;;;;;;;5837.52578126166;-0.27099609375;-0.000177459716796875;-0.27020263671875;3;;
107;;;;;;;5837.76992226105;-0.2734375;-0.00018682861328125;-0.272613525390625;3;;
108;;;;;;;5838.01406326043;-0.27587890625;-0.0001964111328125;-0.2750244140625;3;;
109;;;;;;;5838.25820425982;-0.2783203125;-0.00020648193359375;-0.2774658203125;3;;
110;;;;;;;5838.5023452592;-0.28076171875;-0.000217010498046875;-0.279876708984375;3;;
111;;;;;;;5838.74648625858;-0.283203125;-0.000227874755859375;-0.28228759765625;3;;
112;;;;;;;5838.99062725797;-0.28564453125;-0.000239166259765625;-0.28466796875;3;;
113;;;;;;;5839.23476825735;-0.2880859375;-0.000250885009765625;-0.287139892578125;3;;
114;;;;;;;5839.47890925673;-0.29052734375;-0.000262939453125;-0.289520263671875;3;;
115;;;;;;;5839.72305025612;-0.29296875;-0.000275390625;-0.291961669921875;3;;
116;;;;;;;5839.9671912555;-0.29541015625;-0.000288116455078125;-0.294342041015625;3;;
117;;;;;;;5840.21133225488;-0.2978515625;-0.000301239013671875;-0.296783447265625;3;;
118;;;;;;;5840.45547325427;-0.30029296875;-0.00031475830078125;-0.299591064453125;3;;
119;;;;;;;5840.69961425365;-0.302734375;-0.00032855224609375;-0.302032470703125;3;;
120;;;;;;;5840.94375525303;-0.30517578125;-0.0003426513671875;-0.304473876953125;3;;
121;;;;;;;5841.18789625242;-0.3076171875;-0.00035699462890625;-0.306915283203125;3;;
122;;;;;;;5841.4320372518;-0.31005859375;-0.000371551513671875;-0.309326171875;3;;
123;;;;;;;5841.67617825119;-0.3125;-0.0003863525390625;-0.311798095703125;3;;
124;;;;;;;5841.92031925057;-0.31494140625;-0.000401397705078125;-0.314208984375;3;;
125;;;;;;;5842.16446024995;-0.3173828125;-0.000416473388671875;-0.316650390625;3;;
126;;;;;;;5842.40860124934;-0.31982421875;-0.000431640625;-0.31915283203125;3;;
127;;;;;;;5842.65274224872;-0.322265625;-0.0004468994140625;-0.32147216796875;3;;
128;;;;;;;5842.8968832481;-0.32470703125;-0.000462127685546875;-0.323974609375;3;;
129;;;;;;;5843.14102424749;-0.3271484375;-0.00047735595703125;-0.326416015625;3;;
130;;;;;;;5843.38516524687;-0.32958984375;-0.000492523193359375;-0.32879638671875;3;;
131;;;;;;;5843.62930624625;-0.33203125;-0.0005072021484375;-0.33123779296875;3;;
132;;;;;;;5843.87344724564;-0.33447265625;-0.00052215576171875;-0.33367919921875;3;;
133;;;;;;;5844.11758824502;-0.3369140625;-0.00053680419921875;-0.336212158203125;3;;
134;;;;;;;5844.36172924441;-0.33935546875;-0.0005511474609375;-0.338623046875;3;;
135;;;;;;;5844.60587024379;-0.341796875;-0.00056488037109375;-0.341033935546875;3;;
136;;;;;;;5844.85001124317;-0.34423828125;-0.00057830810546875;-0.34344482421875;3;;
137;;;;;;;5845.09415224256;-0.3466796875;-0.0005914306640625;-0.3458251953125;3;;
138;;;;;;;5845.33829324194;-0.34912109375;-0.00060394287109375;-0.34832763671875;3;;
139;;;;;;;5845.58243424132;-0.3515625;-0.0006158447265625;-0.35076904296875;3;;
140;;;;;;;5845.82657524071;-0.35400390625;-0.00062652587890625;-0.353179931640625;3;;
141;;;;;;;5846.07071624009;-0.3564453125;-0.0006365966796875;-0.3555908203125;3;;
142;;;;;;;5846.31485723947;-0.35888671875;-0.00064605712890625;-0.3580322265625;3;;
143;;;;;;;5846.55899823886;-0.361328125;-0.00065460205078125;-0.3604736328125;3;;
144;;;;;;;5846.80313923824;-0.36376953125;-0.00066192626953125;-0.362945556640625;3;;
145;;;;;;;5847.04728023762;-0.3662109375;-0.0006683349609375;-0.365386962890625;3;;
146;;;;;;;5847.29142123701;-0.36865234375;-0.0006732177734375;-0.367828369140625;3;;
147;;;;;;;5847.53556223639;-0.37109375;-0.00067718505859375;-0.370269775390625;3;;
148;;;;;;;5847.77970323578;-0.37353515625;-0.00067962646484375;-0.372650146484375;3;;
149;;;;;;;5848.02384423516;-0.3759765625;-0.0006805419921875;-0.3751220703125;3;;
150;;;;;;;5848.26798523454;-0.37841796875;-0.00068023681640625;-0.377532958984375;3;;
151;;;;;;;5848.51212623393;-0.380859375;-0.00067840576171875;-0.3800048828125;3;;
152;;;;;;;5848.75626723331;-0.38330078125;-0.000675048828125;-0.382415771484375;3;;
153;;;;;;;5849.00040823269;-0.3857421875;-0.000670166015625;-0.3848876953125;3;;
154;;;;;;;5849.24454923208;-0.38818359375;-0.00066375732421875;-0.3873291015625;3;;
155;;;;;;;5849.48869023146;-0.390625;-0.0006561279296875;-0.389801025390625;3;;
156;;;;;;;5849.73283123084;-0.39306640625;-0.00064727783203125;-0.392181396484375;3;;
157;;;;;;;5849.97697223023;-0.3955078125;-0.00063720703125;-0.394622802734375;3;;
158;;;;;;;5850.22111322961;-0.39794921875;-0.000626220703125;-0.397064208984375;3;;
159;;;;;;;5850.465254229;-0.400390625;-0.00061492919921875;-0.399505615234375;3;;
160;;;;;;;5850.70939522838;-0.40283203125;-0.00060333251953125;-0.4019775390625;3;;
161;;;;;;;5850.95353622776;-0.4052734375;-0.0005914306640625;-0.4044189453125;3;;
162;;;;;;;5851.19767722715;-0.40771484375;-0.000579833984375;-0.4068603515625;3;;
163;;;;;;;5851.44181822653;-0.41015625;-0.00056884765625;-0.40924072265625;3;;
164;;;;;;;5851.68595922591;-0.41259765625;-0.0005584716796875;-0.41168212890625;3;;
165;;;;;;;5851.9301002253;-0.4150390625;-0.00054901123046875;-0.41412353515625;3;;
166;;;;;;;5852.17424122468;-0.41748046875;-0.000540771484375;-0.416595458984375;3;;
167;;;;;;;5852.41838222406;-0.419921875;-0.000533447265625;-0.419036865234375;3;;
168;;;;;;;5852.66252322345;-0.42236328125;-0.00052703857421875;-0.42144775390625;3;;
169;;;;;;;5852.90666422283;-0.4248046875;-0.0005218505859375;-0.4239501953125;3;;
170;;;;;;;5853.15080522221;-0.42724609375;-0.00051727294921875;-0.426361083984375;3;;
171;;;;;;;5853.3949462216;-0.4296875;-0.00051361083984375;-0.428802490234375;3;;
172;;;;;;;5853.63908722098;-0.43212890625;-0.00051055908203125;-0.43121337890625;3;;
173;;;;;;;5853.88322822037;-0.4345703125;-0.0005078125;-0.43365478515625;3;;
174;;;;;;;5854.12736921975;-0.43701171875;-0.0005059814453125;-0.436126708984375;3;;
175;;;;;;;5854.37151021913;-0.439453125;-0.000504150390625;-0.4384765625;3;;
176;;;;;;;5854.61565121852;-0.44189453125;-0.0005029296875;-0.440948486328125;3;;
177;;;;;;;5854.8597922179;-0.4443359375;-0.000501708984375;-0.443359375;3;;
178;;;;;;;5855.10393321728;-0.44677734375;-0.00050079345703125;-0.445831298828125;3;;
179;;;;;;;5855.34807421667;-0.44921875;-0.00050018310546875;-0.4482421875;3;;
180;;;;;;;5855.59221521605;-0.45166015625;-0.000499267578125;-0.450714111328125;3;;
181;;;;;;;5855.83635621543;-0.4541015625;-0.00049896240234375;-0.453125;3;;
182;;;;;;;5856.08049721482;-0.45654296875;-0.00049871826171875;-0.45556640625;3;;
183;;;;;;;5856.3246382142;-0.458984375;-0.0004984130859375;-0.457977294921875;3;;
184;;;;;;;5856.56877921359;-0.46142578125;-0.00049822998046875;-0.46044921875;3;;
185;;;;;;;5856.81292021297;-0.4638671875;-0.000498138427734375;-0.462860107421875;3;;
186;;;;;;;5857.05706121235;-0.46630859375;-0.00049810791015625;-0.46533203125;3;;
187;;;;;;;5857.30120221174;-0.46875;-0.000498138427734375;-0.467742919921875;3;;
188;;;;;;;5857.54534321112;-0.47119140625;-0.000498138427734375;-0.470184326171875;3;;
189;;;;;;;5857.7894842105;-0.4736328125;-0.00049822998046875;-0.47265625;3;;
190;;;;;;;5858.03362520989;-0.47607421875;-0.00049835205078125;-0.475067138671875;3;;
191;;;;;;;5858.27776620927;-0.478515625;-0.000498504638671875;-0.477447509765625;3;;
192;;;;;;;5858.52190720865;-0.48095703125;-0.000498931884765625;-0.479949951171875;3;;
193;;;;;;;5858.76604820804;-0.4833984375;-0.0004990234375;-0.482421875;3;;
194;;;;;;;5859.01018920742;-0.48583984375;-0.000499267578125;-0.48480224609375;3;;
195;;;;;;;5859.25433020681;-0.48828125;-0.000499267578125;-0.48724365234375;3;;
196;;;;;;;5859.49847120619;-0.49072265625;-0.00049957275390625;-0.48968505859375;3;;
197;;;;;;;5859.74261220557;-0.4931640625;-0.0004998779296875;-0.49212646484375;3;;
198;;;;;;;5859.98675320496;-0.49560546875;-0.00050018310546875;-0.494537353515625;3;;
199;;;;;;;5860.23089420434;-0.498046875;-0.00050048828125;-0.497039794921875;3;;
200;;;;;;;5860.47503520372;-0.50048828125;-0.00050079345703125;-0.49945068359375;3;;
201;;;;;;;5860.71917620311;-0.5029296875;-0.00050140380859375;-0.50189208984375;3;;
202;;;;;;;5860.96331720249;-0.50537109375;-0.000501708984375;-0.504302978515625;3;;
203;;;;;;;5861.20745820187;-0.5078125;-0.00050201416015625;-0.50677490234375;3;;
204;;;;;;;5861.45159920126;-0.51025390625;-0.0005023193359375;-0.5091552734375;3;;
205;;;;;;;5861.69574020064;-0.5126953125;-0.0005029296875;-0.51165771484375;3;;
206;;;;;;;5861.93988120002;-0.51513671875;-0.0005035400390625;-0.514068603515625;3;;
207;;;;;;;5862.18402219941;-0.517578125;-0.00050384521484375;-0.516510009765625;3;;
208;;;;;;;5862.42816319879;-0.52001953125;-0.00050445556640625;-0.5189208984375;3;;
209;;;;;;;5862.67230419818;-0.5224609375;-0.0005047607421875;-0.5213623046875;3;;
210;;;;;;;5862.91644519756;-0.52490234375;-0.00050537109375;-0.52386474609375;3;;
211;;;;;;;5863.16058619694;-0.52734375;-0.00050567626953125;-0.526275634765625;3;;
212;;;;;;;5863.40472719633;-0.52978515625;-0.00050628662109375;-0.52874755859375;3;;
213;;;;;;;5863.64886819571;-0.5322265625;-0.00050689697265625;-0.531097412109375;3;;
214;;;;;;;5863.89300919509;-0.53466796875;-0.0005072021484375;-0.533538818359375;3;;
215;;;;;;;5864.13715019448;-0.537109375;-0.0005078125;-0.5360107421875;3;;
216;;;;;;;5864.38129119386;-0.53955078125;-0.0005084228515625;-0.538421630859375;3;;
217;;;;;;;5864.62543219324;-0.5419921875;-0.00050872802734375;-0.540924072265625;3;;
218;;;;;;;5864.86957319263;-0.54443359375;-0.00050933837890625;-0.543365478515625;3;;
219;;;;;;;5865.11371419201;-0.546875;-0.00050994873046875;-0.545745849609375;3;;
220;;;;;;;5865.3578551914;-0.54931640625;-0.00051055908203125;-0.548187255859375;3;;
221;;;;;;;5865.60199619078;-0.5517578125;-0.00051116943359375;-0.550628662109375;3;;
222;;;;;;;5865.84613719016;-0.55419921875;-0.000511474609375;-0.5531005859375;3;;
223;;;;;;;5866.09027818955;-0.556640625;-0.0005120849609375;-0.555572509765625;3;;
224;;;;;;;5866.33441918893;-0.55908203125;-0.00051239013671875;-0.557952880859375;3;;
225;;;;;;;5866.57856018831;-0.5615234375;-0.00051300048828125;-0.56036376953125;3;;
226;;;;;;;5866.8227011877;-0.56396484375;-0.0005133056640625;-0.562835693359375;3;;
227;;;;;;;5867.06684218708;-0.56640625;-0.000513916015625;-0.565216064453125;3;;
228;;;;;;;5867.31098318646;-0.56884765625;-0.00051422119140625;-0.56768798828125;3;;
229;;;;;;;5867.55512418585;-0.5712890625;-0.00051483154296875;-0.57012939453125;3;;
230;;;;;;;5867.79926518523;-0.57373046875;-0.00051513671875;-0.5726318359375;3;;
231;;;;;;;5868.04340618461;-0.576171875;-0.00051544189453125;-0.57501220703125;3;;
232;;;;;;;5868.287547184;-0.57861328125;-0.00051605224609375;-0.5775146484375;3;;
233;;;;;;;5868.53168818338;-0.5810546875;-0.000516357421875;-0.57989501953125;3;;
234;;;;;;;5868.77582918276;-0.58349609375;-0.0005169677734375;-0.582275390625;3;;
235;;;;;;;5869.01997018215;-0.5859375;-0.00051727294921875;-0.58477783203125;3;;
236;;;;;;;5869.26411118153;-0.58837890625;-0.00051727294921875;-0.587188720703125;3;;
237;;;;;;;5869.50825218092;-0.5908203125;-0.00051788330078125;-0.589569091796875;3;;
238;;;;;;;5869.7523931803;-0.59326171875;-0.0005181884765625;-0.592132568359375;3;;
239;;;;;;;5869.99653417968;-0.595703125;-0.00051849365234375;-0.59454345703125;3;;
240;;;;;;;5870.24067517907;-0.59814453125;-0.000518798828125;-0.596893310546875;3;;
241;;;;;;;5870.48481617845;-0.6005859375;-0.00051910400390625;-0.599365234375;3;;
242;;;;;;;5870.72895717783;-0.60302734375;-0.0005194091796875;-0.601776123046875;3;;
243;;;;;;;5870.97309817722;-0.60546875;-0.00051971435546875;-0.604278564453125;3;;
244;;;;;;;5871.2172391766;-0.60791015625;-0.00051971435546875;-0.606719970703125;3;;
245;;;;;;;5871.46138017599;-0.6103515625;-0.00052001953125;-0.60906982421875;3;;
246;;;;;;;5871.70552117537;-0.61279296875;-0.00052032470703125;-0.61151123046875;3;;
247;;;;;;;5871.94966217475;-0.615234375;-0.00052032470703125;-0.614013671875;3;;
248;;;;;;;5872.19380317414;-0.61767578125;-0.0005206298828125;-0.616424560546875;3;;
249;;;;;;;5872.43794417352;-0.6201171875;-0.0005206298828125;-0.618927001953125;3;;
250;;;;;;;5872.6820851729;-0.62255859375;-0.0005206298828125;-0.62139892578125;3;;
251;;;;;;;5872.92622617229;-0.625;-0.00052093505859375;-0.623748779296875;3;;
252;;;;;;;5873.17036717167;-0.62744140625;-0.00052093505859375;-0.626220703125;3;;
253;;;;;;;5873.41450817105;-0.6298828125;-0.00052093505859375;-0.628631591796875;3;;
254;;;;;;;5873.65864917044;-0.63232421875;-0.000521240234375;-0.631134033203125;3;;
255;;;;;;;5873.90279016982;-0.634765625;-0.000521240234375;-0.633575439453125;3;;
256;;;;;;;5874.1469311692;-0.63720703125;-0.000521240234375;-0.635986328125;3;;
257;;;;;;;5874.39107216859;-0.6396484375;-0.000521240234375;-0.638397216796875;3;;
258;;;;;;;5874.63521316797;-0.64208984375;-0.000521240234375;-0.64093017578125;3;;
259;;;;;;;5874.87935416736;-0.64453125;-0.000521240234375;-0.643310546875;3;;
260;;;;;;;5875.12349516674;-0.64697265625;-0.000521240234375;-0.645751953125;3;;
261;;;;;;;5875.36763616612;-0.6494140625;-0.000521240234375;-0.648162841796875;3;;
262;;;;;;;5875.61177716551;-0.65185546875;-0.000521240234375;-0.650634765625;3;;
263;;;;;;;5875.85591816489;-0.654296875;-0.000521240234375;-0.653106689453125;3;;
264;;;;;;;5876.10005916427;-0.65673828125;-0.000521240234375;-0.655426025390625;3;;
265;;;;;;;5876.34420016366;-0.6591796875;-0.000521240234375;-0.65789794921875;3;;
266;;;;;;;5876.58834116304;-0.66162109375;-0.000521240234375;-0.660369873046875;3;;
267;;;;;;;5876.83248216242;-0.6640625;-0.000521240234375;-0.662841796875;3;;
268;;;;;;;5877.07662316181;-0.66650390625;-0.000521240234375;-0.665191650390625;3;;
269;;;;;;;5877.32076416119;-0.6689453125;-0.000521240234375;-0.667694091796875;3;;
270;;;;;;;5877.56490516058;-0.67138671875;-0.00052154541015625;-0.670166015625;3;;
271;;;;;;;5877.80904615996;-0.673828125;-0.00052154541015625;-0.672637939453125;3;;
272;;;;;;;5878.05318715934;-0.67626953125;-0.00052154541015625;-0.675018310546875;3;;
273;;;;;;;5878.29732815873;-0.6787109375;-0.00052154541015625;-0.677490234375;3;;
274;;;;;;;5878.54146915811;-0.68115234375;-0.00052154541015625;-0.679901123046875;3;;
275;;;;;;;5878.78561015749;-0.68359375;-0.0005218505859375;-0.682373046875;3;;
276;;;;;;;5879.02975115688;-0.68603515625;-0.0005218505859375;-0.684783935546875;3;;
277;;;;;;;5879.27389215626;-0.6884765625;-0.0005218505859375;-0.687164306640625;3;;
278;;;;;;;5879.51803315564;-0.69091796875;-0.00052215576171875;-0.689605712890625;3;;
279;;;;;;;5879.76217415503;-0.693359375;-0.00052215576171875;-0.692108154296875;3;;
280;;;;;;;5880.00631515441;-0.69580078125;-0.00052215576171875;-0.694488525390625;3;;
281;;;;;;;5880.25045615379;-0.6982421875;-0.0005224609375;-0.69696044921875;3;;
282;;;;;;;5880.49459715318;-0.70068359375;-0.00052276611328125;-0.6993408203125;3;;
283;;;;;;;5880.73873815256;-0.703125;-0.00052276611328125;-0.70184326171875;3;;
284;;;;;;;5880.98287915195;-0.70556640625;-0.0005230712890625;-0.704315185546875;3;;
285;;;;;;;5881.22702015133;-0.7080078125;-0.00052337646484375;-0.706817626953125;3;;
286;;;;;;;5881.47116115071;-0.71044921875;-0.00052337646484375;-0.709136962890625;3;;
287;;;;;;;5881.7153021501;-0.712890625;-0.000523681640625;-0.71160888671875;3;;
288;;;;;;;5881.95944314948;-0.71533203125;-0.00052398681640625;-0.714080810546875;3;;
289;;;;;;;5882.20358414886;-0.7177734375;-0.0005242919921875;-0.716522216796875;3;;
290;;;;;;;5882.44772514825;-0.72021484375;-0.00052459716796875;-0.718994140625;3;;
291;;;;;;;5882.69186614763;-0.72265625;-0.00052490234375;-0.721435546875;3;;
292;;;;;;;5882.93600714701;-0.72509765625;-0.00052520751953125;-0.723846435546875;3;;
293;;;;;;;5883.1801481464;-0.7275390625;-0.0005255126953125;-0.726318359375;3;;
294;;;;;;;5883.42428914578;-0.72998046875;-0.0005255126953125;-0.72869873046875;3;;
295;;;;;;;5883.66843014517;-0.732421875;-0.000526123046875;-0.731201171875;3;;
296;;;;;;;5883.91257114455;-0.73486328125;-0.00052642822265625;-0.73358154296875;3;;
297;;;;;;;5884.15671214393;-0.7373046875;-0.0005267333984375;-0.736083984375;3;;
298;;;;;;;5884.40085314332;-0.73974609375;-0.00052703857421875;-0.73846435546875;3;;
299;;;;;;;5884.6449941427;-0.7421875;-0.00052734375;-0.740936279296875;3;;
300;;;;;;;5884.88913514208;-0.74462890625;-0.00052764892578125;-0.743408203125;3;;
301;;;;;;;5885.13327614147;-0.7470703125;-0.00052825927734375;-0.745758056640625;3;;
302;;;;;;;5885.37741714085;-0.74951171875;-0.000528564453125;-0.748291015625;3;;
303;;;;;;;5885.62155814023;-0.751953125;-0.0005291748046875;-0.75103759765625;3;;
304;;;;;;;5885.86569913962;-0.75439453125;-0.00052947998046875;-0.75347900390625;3;;
305;;;;;;;5886.109840139;-0.7568359375;-0.00052978515625;-0.755615234375;3;;
306;;;;;;;5886.35398113839;-0.75927734375;-0.00053009033203125;-0.7586669921875;3;;
307;;;;;;;5886.59812213777;-0.76171875;-0.00053070068359375;-0.76080322265625;3;;
308;;;;;;;5886.84226313715;-0.76416015625;-0.000531005859375;-0.7635498046875;3;;
309;;;;;;;5887.08640413654;-0.7666015625;-0.00053131103515625;-0.76568603515625;3;;
310;;;;;;;5887.33054513592;-0.76904296875;-0.0005316162109375;-0.76873779296875;3;;
311;;;;;;;5887.5746861353;-0.771484375;-0.00053192138671875;-0.7708740234375;3;;
312;;;;;;;5887.81882713469;-0.77392578125;-0.0005322265625;-0.7733154296875;3;;
313;;;;;;;5888.06296813407;-0.7763671875;-0.00053253173828125;-0.77545166015625;3;;
314;;;;;;;5888.30710913345;-0.77880859375;-0.0005328369140625;-0.7781982421875;3;;
315;;;;;;;5888.55125013284;-0.78125;-0.00053314208984375;-0.78033447265625;3;;
316;;;;;;;5888.79539113222;-0.78369140625;-0.000533447265625;-0.78338623046875;3;;
317;;;;;;;5889.0395321316;-0.7861328125;-0.00053375244140625;-0.78521728515625;3;;
318;;;;;;;5889.28367313099;-0.78857421875;-0.0005340576171875;-0.7879638671875;3;;
319;;;;;;;5889.52781413037;-0.791015625;-0.00053436279296875;-0.7904052734375;3;;
320;;;;;;;5889.77195512976;-0.79345703125;-0.00053466796875;-0.79315185546875;3;;
321;;;;;;;5890.01609612914;-0.7958984375;-0.00053497314453125;-0.7952880859375;3;;
322;;;;;;;5890.26023712852;-0.79833984375;-0.0005352783203125;-0.79803466796875;3;;
323;;;;;;;5890.50437812791;-0.80078125;-0.0005352783203125;-0.79986572265625;3;;
324;;;;;;;5890.74851912729;-0.80322265625;-0.00053558349609375;-0.8026123046875;3;;
325;;;;;;;5890.99266012667;-0.8056640625;-0.000535888671875;-0.80474853515625;3;;
326;;;;;;;5891.23680112606;-0.80810546875;-0.000535888671875;-0.8074951171875;3;;
327;;;;;;;5891.48094212544;-0.810546875;-0.00053619384765625;-0.8099365234375;3;;
328;;;;;;;5891.72508312482;-0.81298828125;-0.00053619384765625;-0.811767578125;3;;
329;;;;;;;5891.96922412421;-0.8154296875;-0.00053619384765625;-0.8148193359375;3;;
330;;;;;;;5892.21336512359;-0.81787109375;-0.00053619384765625;-0.8172607421875;3;;
331;;;;;;;5892.45750612298;-0.8203125;-0.00053619384765625;-0.82000732421875;3;;
332;;;;;;;5892.70164712236;-0.82275390625;-0.000535888671875;-0.8221435546875;3;;
333;;;;;;;5892.94578812174;-0.8251953125;-0.000535888671875;-0.82427978515625;3;;
334;;;;;;;5893.18992912113;-0.82763671875;-0.000535888671875;-0.82733154296875;3;;
335;;;;;;;5893.43407012051;-0.830078125;-0.00053558349609375;-0.82916259765625;3;;
336;;;;;;;5893.67821111989;-0.83251953125;-0.00053558349609375;-0.8319091796875;3;;
337;;;;;;;5893.92235211928;-0.8349609375;-0.0005352783203125;-0.8343505859375;3;;
338;;;;;;;5894.16649311866;-0.83740234375;-0.00053497314453125;-0.8367919921875;3;;
339;;;;;;;5894.41063411804;-0.83984375;-0.00053466796875;-0.83892822265625;3;;
340;;;;;;;5894.65477511743;-0.84228515625;-0.0005340576171875;-0.84136962890625;3;;
341;;;;;;;5894.89891611681;-0.8447265625;-0.00053375244140625;-0.84381103515625;3;;
342;;;;;;;5895.14305711619;-0.84716796875;-0.000533447265625;-0.84686279296875;3;;
343;;;;;;;5895.38719811558;-0.849609375;-0.0005328369140625;-0.84869384765625;3;;
344;;;;;;;5895.63133911496;-0.85205078125;-0.00053253173828125;-0.85174560546875;3;;
345;;;;;;;5895.87548011435;-0.8544921875;-0.00053192138671875;-0.85357666015625;3;;
346;;;;;;;5896.11962111373;-0.85693359375;-0.00053131103515625;-0.85601806640625;3;;
347;;;;;;;5896.36376211311;-0.859375;-0.00053070068359375;-0.858154296875;3;;
348;;;;;;;5896.6079031125;-0.86181640625;-0.00052978515625;-0.8612060546875;3;;
349;;;;;;;5896.85204411188;-0.8642578125;-0.0005291748046875;-0.8636474609375;3;;
350;;;;;;;5897.09618511126;-0.86669921875;-0.000528564453125;-0.86578369140625;3;;
351;;;;;;;5897.34032611065;-0.869140625;-0.00052764892578125;-0.86822509765625;3;;
352;;;;;;;5897.58446711003;-0.87158203125;-0.00052703857421875;-0.87066650390625;3;;
353;;;;;;;5897.82860810941;-0.8740234375;-0.000526123046875;-0.8734130859375;3;;
354;;;;;;;5898.0727491088;-0.87646484375;-0.00052520751953125;-0.87554931640625;3;;
355;;;;;;;5898.31689010818;-0.87890625;-0.00052459716796875;-0.87860107421875;3;;
356;;;;;;;5898.56103110757;-0.88134765625;-0.000523681640625;-0.8807373046875;3;;
357;;;;;;;5898.80517210695;-0.8837890625;-0.00052276611328125;-0.8837890625;3;;
358;;;;;;;5899.04931310633;-0.88623046875;-0.0005218505859375;-0.8856201171875;3;;
359;;;;;;;5899.29345410572;-0.888671875;-0.000521240234375;-0.88836669921875;3;;
360;;;;;;;5899.5375951051;-0.89111328125;-0.00052032470703125;-0.8905029296875;3;;
361;;;;;;;5899.78173610448;-0.8935546875;-0.00051971435546875;-0.89324951171875;3;;
362;;;;;;;5900.02587710387;-0.89599609375;-0.000518798828125;-0.89569091796875;3;;
363;;;;;;;5900.27001810325;-0.8984375;-0.0005181884765625;-0.8978271484375;3;;
364;;;;;;;5900.51415910263;-0.90087890625;-0.00051727294921875;-0.89996337890625;3;;
365;;;;;;;5900.75830010202;-0.9033203125;-0.00051666259765625;-0.90240478515625;3;;
366;;;;;;;5901.0024411014;-0.90576171875;-0.00051605224609375;-0.9051513671875;3;;
367;;;;;;;5901.24658210078;-0.908203125;-0.00051544189453125;-0.9075927734375;3;;
368;;;;;;;5901.49072310017;-0.91064453125;-0.00051483154296875;-0.91064453125;3;;
369;;;;;;;5901.73486409955;-0.9130859375;-0.00051422119140625;-0.9130859375;3;;
370;;;;;;;5901.97900509894;-0.91552734375;-0.00051361083984375;-0.9149169921875;3;;
371;;;;;;;5902.22314609832;-0.91796875;-0.00051300048828125;-0.91705322265625;3;;
372;;;;;;;5902.4672870977;-0.92041015625;-0.0005126953125;-0.9197998046875;3;;
373;;;;;;;5902.71142809709;-0.9228515625;-0.0005120849609375;-0.9222412109375;3;;
374;;;;;;;5902.95556909647;-0.92529296875;-0.00051177978515625;-0.9246826171875;3;;
375;;;;;;;5903.19971009585;-0.927734375;-0.000511474609375;-0.92742919921875;3;;
376;;;;;;;5903.44385109524;-0.93017578125;-0.00051116943359375;-0.93017578125;3;;
377;;;;;;;5903.68799209462;-0.9326171875;-0.0005108642578125;-0.93170166015625;3;;
378;;;;;;;5903.932133094;-0.93505859375;-0.00051025390625;-0.9344482421875;3;;
379;;;;;;;5904.17627409339;-0.9375;-0.00050994873046875;-0.9368896484375;3;;
380;;;;;;;5904.42041509277;-0.93994140625;-0.00050994873046875;-0.9393310546875;3;;
381;;;;;;;5904.66455609216;-0.9423828125;-0.0005096435546875;-0.94146728515625;3;;
382;;;;;;;5904.90869709154;-0.94482421875;-0.00050933837890625;-0.9442138671875;3;;
383;;;;;;;5905.15283809092;-0.947265625;-0.000509033203125;-0.946044921875;3;;
384;;;;;;;5905.39697909031;-0.94970703125;-0.00050872802734375;-0.94879150390625;3;;
385;;;;;;;5905.64112008969;-0.9521484375;-0.00050872802734375;-0.95123291015625;3;;
386;;;;;;;5905.88526108907;-0.95458984375;-0.0005084228515625;-0.95428466796875;3;;
387;;;;;;;5906.12940208846;-0.95703125;-0.0005084228515625;-0.95672607421875;3;;
388;;;;;;;5906.37354308784;-0.95947265625;-0.00050811767578125;-0.958251953125;3;;
389;;;;;;;5906.61768408722;-0.9619140625;-0.00050811767578125;-0.9613037109375;3;;
390;;;;;;;5906.86182508661;-0.96435546875;-0.0005078125;-0.96405029296875;3;;
391;;;;;;;5907.10596608599;-0.966796875;-0.0005078125;-0.9661865234375;3;;
392;;;;;;;5907.35010708537;-0.96923828125;-0.00050750732421875;-0.9686279296875;3;;
393;;;;;;;5907.59424808476;-0.9716796875;-0.00050750732421875;-0.97076416015625;3;;
394;;;;;;;5907.83838908414;-0.97412109375;-0.00050750732421875;-0.97412109375;3;;
395;;;;;;;5908.08253008353;-0.9765625;-0.0005072021484375;-0.9765625;3;;
396;;;;;;;5908.32667108291;-0.97900390625;-0.0005072021484375;-0.9783935546875;3;;
397;;;;;;;5908.57081208229;-0.9814453125;-0.0005072021484375;-0.98114013671875;3;;
398;;;;;;;5908.81495308168;-0.98388671875;-0.0005072021484375;-0.98358154296875;3;;
399;;;;;;;5909.05909408106;-0.986328125;-0.0005072021484375;-0.9857177734375;3;;
400;;;;;;;5909.30323508044;-0.98876953125;-0.0005072021484375;-0.9881591796875;3;;
401;;;;;;;5909.54737607983;-0.9912109375;-0.0005072021484375;-0.9906005859375;3;;
402;;;;;;;5909.79151707921;-0.99365234375;-0.0005072021484375;-0.99273681640625;3;;
403;;;;;;;5910.03565807859;-0.99609375;-0.0005072021484375;-0.99517822265625;3;;
404;;;;;;;5910.27979907798;-0.99853515625;-0.0005072021484375;-0.99822998046875;3;;
405;;;;;;;5910.52394007736;-1.0009765625;-0.0005072021484375;-1.0003662109375;3;;
406;;;;;;;5910.76808107675;-0.99853515625;-0.00050384521484375;-0.99761962890625;3;;
407;;;;;;;5911.01222207613;-0.99609375;-0.000501708984375;-0.99578857421875;3;;
408;;;;;;;5911.25636307551;-0.99365234375;-0.00050018310546875;-0.9930419921875;3;;
409;;;;;;;5911.5005040749;-0.9912109375;-0.000499237060546875;-0.9906005859375;3;;
410;;;;;;;5911.74464507428;-0.98876953125;-0.000498321533203125;-0.98846435546875;3;;
411;;;;;;;5911.98878607366;-0.986328125;-0.000497528076171875;-0.9857177734375;3;;
412;;;;;;;5912.23292707305;-0.98388671875;-0.000496826171875;-0.98297119140625;3;;
413;;;;;;;5912.47706807243;-0.9814453125;-0.000496185302734375;-0.98052978515625;3;;
414;;;;;;;5912.72120907181;-0.97900390625;-0.00049560546875;-0.9783935546875;3;;
415;;;;;;;5912.9653500712;-0.9765625;-0.000495086669921875;-0.9759521484375;3;;
416;;;;;;;5913.20949107058;-0.97412109375;-0.00049456787109375;-0.97381591796875;3;;
417;;;;;;;5913.45363206996;-0.9716796875;-0.00049407958984375;-0.9710693359375;3;;
418;;;;;;;5913.69777306935;-0.96923828125;-0.000493621826171875;-0.9686279296875;3;;
419;;;;;;;5913.94191406873;-0.966796875;-0.000493194580078125;-0.96588134765625;3;;
420;;;;;;;5914.18605506812;-0.96435546875;-0.00049273681640625;-0.963134765625;3;;
421;;;;;;;5914.4301960675;-0.9619140625;-0.000492279052734375;-0.96160888671875;3;;
422;;;;;;;5914.67433706688;-0.95947265625;-0.000491851806640625;-0.9588623046875;3;;
423;;;;;;;5914.91847806627;-0.95703125;-0.000491455078125;-0.9564208984375;3;;
424;;;;;;;5915.16261906565;-0.95458984375;-0.000490997314453125;-0.95428466796875;3;;
425;;;;;;;5915.40676006503;-0.9521484375;-0.000490631103515625;-0.9515380859375;3;;
426;;;;;;;5915.65090106442;-0.94970703125;-0.000490234375;-0.94970703125;3;;
427;;;;;;;5915.8950420638;-0.947265625;-0.000489898681640625;-0.94696044921875;3;;
428;;;;;;;5916.13918306318;-0.94482421875;-0.000489501953125;-0.94390869140625;3;;
429;;;;;;;5916.38332406257;-0.9423828125;-0.0004891357421875;-0.94146728515625;3;;
430;;;;;;;5916.62746506195;-0.93994140625;-0.000488800048828125;-0.9393310546875;3;;
431;;;;;;;5916.87160606134;-0.9375;-0.000488433837890625;-0.9368896484375;3;;
432;;;;;;;5917.11574706072;-0.93505859375;-0.000488128662109375;-0.9344482421875;3;;
433;;;;;;;5917.3598880601;-0.9326171875;-0.000487762451171875;-0.9320068359375;3;;
434;;;;;;;5917.60402905949;-0.93017578125;-0.0004874267578125;-0.9295654296875;3;;
435;;;;;;;5917.84817005887;-0.927734375;-0.000487060546875;-0.92742919921875;3;;
436;;;;;;;5918.09231105825;-0.92529296875;-0.000486724853515625;-0.92437744140625;3;;
437;;;;;;;5918.33645205764;-0.9228515625;-0.00048638916015625;-0.9222412109375;3;;
438;;;;;;;5918.58059305702;-0.92041015625;-0.00048602294921875;-0.9197998046875;3;;
439;;;;;;;5918.8247340564;-0.91796875;-0.00048565673828125;-0.91705322265625;3;;
440;;;;;;;5919.06887505579;-0.91552734375;-0.000485321044921875;-0.9149169921875;3;;
441;;;;;;;5919.31301605517;-0.9130859375;-0.0004849853515625;-0.91217041015625;3;;
442;;;;;;;5919.55715705455;-0.91064453125;-0.000484649658203125;-0.909423828125;3;;
443;;;;;;;5919.80129805394;-0.908203125;-0.000484283447265625;-0.9075927734375;3;;
444;;;;;;;5920.04543905332;-0.90576171875;-0.000483978271484375;-0.9051513671875;3;;
445;;;;;;;5920.28958005271;-0.9033203125;-0.000483612060546875;-0.90240478515625;3;;
446;;;;;;;5920.53372105209;-0.90087890625;-0.000483245849609375;-0.9002685546875;3;;
447;;;;;;;5920.77786205147;-0.8984375;-0.00048291015625;-0.8978271484375;3;;
448;;;;;;;5921.02200305086;-0.89599609375;-0.000482574462890625;-0.8953857421875;3;;
449;;;;;;;5921.26614405024;-0.8935546875;-0.00048223876953125;-0.8929443359375;3;;
450;;;;;;;5921.51028504962;-0.89111328125;-0.000481842041015625;-0.8905029296875;3;;
451;;;;;;;5921.75442604901;-0.888671875;-0.000481536865234375;-0.88775634765625;3;;
452;;;;;;;5921.99856704839;-0.88623046875;-0.000481201171875;-0.88592529296875;3;;
453;;;;;;;5922.24270804777;-0.8837890625;-0.000480743408203125;-0.88348388671875;3;;
454;;;;;;;5922.48684904716;-0.88134765625;-0.000480438232421875;-0.88104248046875;3;;
455;;;;;;;5922.73099004654;-0.87890625;-0.00048004150390625;-0.877685546875;3;;
456;;;;;;;5922.97513104593;-0.87646484375;-0.000479705810546875;-0.8758544921875;3;;
457;;;;;;;5923.21927204531;-0.8740234375;-0.000479339599609375;-0.87310791015625;3;;
458;;;;;;;5923.46341304469;-0.87158203125;-0.00047900390625;-0.870361328125;3;;
459;;;;;;;5923.70755404408;-0.869140625;-0.0004786376953125;-0.8685302734375;3;;
460;;;;;;;5923.95169504346;-0.86669921875;-0.00047833251953125;-0.86578369140625;3;;
461;;;;;;;5924.19583604284;-0.8642578125;-0.000477935791015625;-0.8636474609375;3;;
462;;;;;;;5924.43997704223;-0.86181640625;-0.00047760009765625;-0.86090087890625;3;;
463;;;;;;;5924.68411804161;-0.859375;-0.000477294921875;-0.8587646484375;3;;
464;;;;;;;5924.92825904099;-0.85693359375;-0.000476959228515625;-0.85601806640625;3;;
465;;;;;;;5925.17240004038;-0.8544921875;-0.000476593017578125;-0.8538818359375;3;;
466;;;;;;;5925.41654103976;-0.85205078125;-0.00047625732421875;-0.8514404296875;3;;
467;;;;;;;5925.66068203915;-0.849609375;-0.0004759521484375;-0.8489990234375;3;;
468;;;;;;;5925.90482303853;-0.84716796875;-0.0004755859375;-0.84686279296875;3;;
469;;;;;;;5926.14896403791;-0.8447265625;-0.000475250244140625;-0.8441162109375;3;;
470;;;;;;;5926.3931050373;-0.84228515625;-0.000474945068359375;-0.841064453125;3;;
471;;;;;;;5926.63724603668;-0.83984375;-0.00047454833984375;-0.83892822265625;3;;
472;;;;;;;5926.88138703606;-0.83740234375;-0.000474273681640625;-0.8367919921875;3;;
473;;;;;;;5927.12552803545;-0.8349609375;-0.00047430419921875;-0.8343505859375;3;;
474;;;;;;;5927.36966903483;-0.83251953125;-0.000473724365234375;-0.8319091796875;3;;
475;;;;;;;5927.61381003421;-0.830078125;-0.000473419189453125;-0.82916259765625;3;;
476;;;;;;;5927.8579510336;-0.82763671875;-0.00047314453125;-0.82672119140625;3;;
477;;;;;;;5928.10209203298;-0.8251953125;-0.000472869873046875;-0.8245849609375;3;;
478;;;;;;;5928.34623303236;-0.82275390625;-0.000472564697265625;-0.82275390625;3;;
479;;;;;;;5928.59037403175;-0.8203125;-0.000472320556640625;-0.81939697265625;3;;
480;;;;;;;5928.83451503113;-0.81787109375;-0.000472015380859375;-0.81695556640625;3;;
481;;;;;;;5929.07865603052;-0.8154296875;-0.00047174072265625;-0.81512451171875;3;;
482;;;;;;;5929.3227970299;-0.81298828125;-0.000471527099609375;-0.81207275390625;3;;
483;;;;;;;5929.56693802928;-0.810546875;-0.0004713134765625;-0.81024169921875;3;;
484;;;;;;;5929.81107902867;-0.80810546875;-0.000471099853515625;-0.8074951171875;3;;
485;;;;;;;5930.05522002805;-0.8056640625;-0.000470916748046875;-0.80474853515625;3;;
486;;;;;;;5930.29936102743;-0.80322265625;-0.000470703125;-0.80291748046875;3;;
487;;;;;;;5930.54350202682;-0.80078125;-0.000470550537109375;-0.799560546875;3;;
488;;;;;;;5930.7876430262;-0.79833984375;-0.000470367431640625;-0.79742431640625;3;;
489;;;;;;;5931.03178402558;-0.7958984375;-0.00047021484375;-0.7952880859375;3;;
490;;;;;;;5931.27592502497;-0.79345703125;-0.0004700927734375;-0.79254150390625;3;;
491;;;;;;;5931.52006602435;-0.791015625;-0.000469940185546875;-0.79010009765625;3;;
492;;;;;;;5931.76420702374;-0.78857421875;-0.000469818115234375;-0.78704833984375;3;;
493;;;;;;;5932.00834802312;-0.7861328125;-0.0004697265625;-0.78582763671875;3;;
494;;;;;;;5932.2524890225;-0.78369140625;-0.0004696044921875;-0.78277587890625;3;;
495;;;;;;;5932.49663002189;-0.78125;-0.000469482421875;-0.78033447265625;3;;
496;;;;;;;5932.74077102127;-0.77880859375;-0.00046942138671875;-0.77789306640625;3;;
497;;;;;;;5932.98491202065;-0.7763671875;-0.000469329833984375;-0.7757568359375;3;;
498;;;;;;;5933.22905302004;-0.77392578125;-0.000469207763671875;-0.7733154296875;3;;
499;;;;;;;5933.47319401942;-0.771484375;-0.000469146728515625;-0.7708740234375;3;;
500;;;;;;;5933.7173350188;-0.76904296875;-0.000469085693359375;-0.76812744140625;3;;
501;;;;;;;5933.96147601819;-0.7666015625;-0.00046905517578125;-0.76568603515625;3;;
502;;;;;;;5934.20561701757;-0.76416015625;-0.00046905517578125;-0.7635498046875;3;;
503;;;;;;;5934.44975801695;-0.76171875;-0.00046905517578125;-0.7611083984375;3;;
504;;;;;;;5934.69389901634;-0.75927734375;-0.000469085693359375;-0.7586669921875;3;;
505;;;;;;;5934.93804001572;-0.7568359375;-0.0004691162109375;-0.75592041015625;3;;
506;;;;;;;5935.18218101511;-0.75439453125;-0.000469146728515625;-0.75347900390625;3;;
507;;;;;;;5935.42632201449;-0.751953125;-0.00046917724609375;-0.7513427734375;3;;
508;;;;;;;5935.67046301387;-0.74951171875;-0.000469268798828125;-0.748260498046875;3;;
509;;;;;;;5935.91460401326;-0.7470703125;-0.000469329833984375;-0.745758056640625;3;;
510;;;;;;;5936.15874501264;-0.74462890625;-0.00046942138671875;-0.743408203125;3;;
511;;;;;;;5936.40288601202;-0.7421875;-0.000469482421875;-0.740966796875;3;;
512;;;;;;;5936.64702701141;-0.73974609375;-0.0004696044921875;-0.738494873046875;3;;
513;;;;;;;5936.89116801079;-0.7373046875;-0.0004697265625;-0.73602294921875;3;;
514;;;;;;;5937.13530901017;-0.73486328125;-0.000469818115234375;-0.733612060546875;3;;
515;;;;;;;5937.37945000956;-0.732421875;-0.000469970703125;-0.731201171875;3;;
516;;;;;;;5937.62359100894;-0.72998046875;-0.000470123291015625;-0.728729248046875;3;;
517;;;;;;;5937.86773200833;-0.7275390625;-0.000470245361328125;-0.726226806640625;3;;
518;;;;;;;5938.11187300771;-0.72509765625;-0.000470428466796875;-0.723846435546875;3;;
519;;;;;;;5938.35601400709;-0.72265625;-0.000470611572265625;-0.721435546875;3;;
520;;;;;;;5938.60015500648;-0.72021484375;-0.00047076416015625;-0.718963623046875;3;;
521;;;;;;;5938.84429600586;-0.7177734375;-0.000470947265625;-0.71649169921875;3;;
522;;;;;;;5939.08843700524;-0.71533203125;-0.00047113037109375;-0.714080810546875;3;;
523;;;;;;;5939.33257800463;-0.712890625;-0.000471282958984375;-0.711639404296875;3;;
524;;;;;;;5939.57671900401;-0.71044921875;-0.000471435546875;-0.709197998046875;3;;
525;;;;;;;5939.82086000339;-0.7080078125;-0.000471649169921875;-0.706756591796875;3;;
526;;;;;;;5940.06500100278;-0.70556640625;-0.0004718017578125;-0.70428466796875;3;;
527;;;;;;;5940.30914200216;-0.703125;-0.00047198486328125;-0.701904296875;3;;
528;;;;;;;5940.55328300154;-0.70068359375;-0.00047216796875;-0.699432373046875;3;;
529;;;;;;;5940.79742400093;-0.6982421875;-0.00047235107421875;-0.697021484375;3;;
530;;;;;;;5941.04156500031;-0.69580078125;-0.00047247314453125;-0.694549560546875;3;;
531;;;;;;;5941.2857059997;-0.693359375;-0.00047265625;-0.69207763671875;3;;
532;;;;;;;5941.52984699908;-0.69091796875;-0.000472869873046875;-0.68963623046875;3;;
533;;;;;;;5941.77398799846;-0.6884765625;-0.000473052978515625;-0.687225341796875;3;;
534;;;;;;;5942.01812899785;-0.68603515625;-0.000473236083984375;-0.684783935546875;3;;
535;;;;;;;5942.26226999723;-0.68359375;-0.00047344970703125;-0.682373046875;3;;
536;;;;;;;5942.50641099661;-0.68115234375;-0.0004736328125;-0.679901123046875;3;;
537;;;;;;;5942.750551996;-0.6787109375;-0.00047381591796875;-0.677490234375;3;;
538;;;;;;;5942.99469299538;-0.67626953125;-0.000473968505859375;-0.675018310546875;3;;
539;;;;;;;5943.23883399476;-0.673828125;-0.000474090576171875;-0.672576904296875;3;;
540;;;;;;;5943.48297499415;-0.67138671875;-0.000474151611328125;-0.670135498046875;3;;
541;;;;;;;5943.72711599353;-0.6689453125;-0.00047430419921875;-0.667694091796875;3;;
542;;;;;;;5943.97125699292;-0.66650390625;-0.000474395751953125;-0.665252685546875;3;;
543;;;;;;;5944.2153979923;-0.6640625;-0.00047454833984375;-0.662841796875;3;;
544;;;;;;;5944.45953899168;-0.66162109375;-0.00047467041015625;-0.66046142578125;3;;
545;;;;;;;5944.70367999107;-0.6591796875;-0.00047479248046875;-0.657928466796875;3;;
546;;;;;;;5944.94782099045;-0.65673828125;-0.000474853515625;-0.655487060546875;3;;
547;;;;;;;5945.19196198983;-0.654296875;-0.0004749755859375;-0.653076171875;3;;
548;;;;;;;5945.43610298922;-0.65185546875;-0.000475128173828125;-0.650604248046875;3;;
549;;;;;;;5945.6802439886;-0.6494140625;-0.00047528076171875;-0.648162841796875;3;;
550;;;;;;;5945.92438498798;-0.64697265625;-0.00047540283203125;-0.645721435546875;3;;
551;;;;;;;5946.16852598737;-0.64453125;-0.00047552490234375;-0.643218994140625;3;;
552;;;;;;;5946.41266698675;-0.64208984375;-0.00047564697265625;-0.640869140625;3;;
553;;;;;;;5946.65680798613;-0.6396484375;-0.000475738525390625;-0.638427734375;3;;
554;;;;;;;5946.90094898552;-0.63720703125;-0.000475799560546875;-0.635955810546875;3;;
555;;;;;;;5947.1450899849;-0.634765625;-0.000475799560546875;-0.633514404296875;3;;
556;;;;;;;5947.38923098429;-0.63232421875;-0.000475799560546875;-0.631103515625;3;;
557;;;;;;;5947.63337198367;-0.6298828125;-0.000475799560546875;-0.628692626953125;3;;
558;;;;;;;5947.87751298305;-0.62744140625;-0.000475830078125;-0.626190185546875;3;;
559;;;;;;;5948.12165398244;-0.625;-0.000475799560546875;-0.623748779296875;3;;
560;;;;;;;5948.36579498182;-0.62255859375;-0.00047576904296875;-0.621337890625;3;;
561;;;;;;;5948.6099359812;-0.6201171875;-0.000475738525390625;-0.618865966796875;3;;
562;;;;;;;5948.85407698059;-0.61767578125;-0.0004757080078125;-0.616485595703125;3;;
563;;;;;;;5949.09821797997;-0.615234375;-0.000475616455078125;-0.613983154296875;3;;
564;;;;;;;5949.34235897935;-0.61279296875;-0.00047552490234375;-0.611541748046875;3;;
565;;;;;;;5949.58649997874;-0.6103515625;-0.00047540283203125;-0.609130859375;3;;
566;;;;;;;5949.83064097812;-0.60791015625;-0.000475250244140625;-0.60675048828125;3;;
567;;;;;;;5950.07478197751;-0.60546875;-0.000475067138671875;-0.604278564453125;3;;
568;;;;;;;5950.31892297689;-0.60302734375;-0.000474884033203125;-0.601776123046875;3;;
569;;;;;;;5950.56306397627;-0.6005859375;-0.0004747314453125;-0.59942626953125;3;;
570;;;;;;;5950.80720497566;-0.59814453125;-0.0004744873046875;-0.596893310546875;3;;
571;;;;;;;5951.05134597504;-0.595703125;-0.000474273681640625;-0.594451904296875;3;;
572;;;;;;;5951.29548697442;-0.59326171875;-0.000474029541015625;-0.592071533203125;3;;
573;;;;;;;5951.53962797381;-0.5908203125;-0.000473724365234375;-0.58966064453125;3;;
574;;;;;;;5951.78376897319;-0.58837890625;-0.00047344970703125;-0.587158203125;3;;
575;;;;;;;5952.02790997257;-0.5859375;-0.000473175048828125;-0.584808349609375;3;;
576;;;;;;;5952.27205097196;-0.58349609375;-0.000472869873046875;-0.582366943359375;3;;
577;;;;;;;5952.51619197134;-0.5810546875;-0.000472564697265625;-0.57989501953125;3;;
578;;;;;;;5952.76033297073;-0.57861328125;-0.000472259521484375;-0.577484130859375;3;;
579;;;;;;;5953.00447397011;-0.576171875;-0.000471954345703125;-0.57501220703125;3;;
580;;;;;;;5953.24861496949;-0.57373046875;-0.00047161865234375;-0.572540283203125;3;;
581;;;;;;;5953.49275596888;-0.5712890625;-0.000471282958984375;-0.5701904296875;3;;
582;;;;;;;5953.73689696826;-0.56884765625;-0.000470916748046875;-0.56768798828125;3;;
583;;;;;;;5953.98103796764;-0.56640625;-0.0004705810546875;-0.565216064453125;3;;
584;;;;;;;5954.22517896703;-0.56396484375;-0.000470184326171875;-0.562896728515625;3;;
585;;;;;;;5954.46931996641;-0.5615234375;-0.00046978759765625;-0.560455322265625;3;;
586;;;;;;;5954.71346096579;-0.55908203125;-0.00046942138671875;-0.5579833984375;3;;
587;;;;;;;5954.95760196518;-0.556640625;-0.000468994140625;-0.555572509765625;3;;
588;;;;;;;5955.20174296456;-0.55419921875;-0.000468536376953125;-0.553009033203125;3;;
589;;;;;;;5955.44588396394;-0.5517578125;-0.000468109130859375;-0.55059814453125;3;;
590;;;;;;;5955.69002496333;-0.54931640625;-0.000467620849609375;-0.5482177734375;3;;
591;;;;;;;5955.93416596271;-0.546875;-0.000467132568359375;-0.545745849609375;3;;
592;;;;;;;5956.1783069621;-0.54443359375;-0.000466644287109375;-0.5433349609375;3;;
593;;;;;;;5956.42244796148;-0.5419921875;-0.0004661865234375;-0.5408935546875;3;;
594;;;;;;;5956.66658896086;-0.53955078125;-0.000465728759765625;-0.5384521484375;3;;
595;;;;;;;5956.91072996025;-0.537109375;-0.00046527099609375;-0.5360107421875;3;;
596;;;;;;;5957.15487095963;-0.53466796875;-0.000464813232421875;-0.5335693359375;3;;
597;;;;;;;5957.39901195901;-0.5322265625;-0.000464385986328125;-0.53106689453125;3;;
598;;;;;;;5957.6431529584;-0.52978515625;-0.000463897705078125;-0.528656005859375;3;;
599;;;;;;;5957.88729395778;-0.52734375;-0.000463531494140625;-0.526275634765625;3;;
600;;;;;;;5958.13143495716;-0.52490234375;-0.000463134765625;-0.523773193359375;3;;
601;;;;;;;5958.37557595655;-0.5224609375;-0.000462738037109375;-0.52142333984375;3;;
602;;;;;;;5958.61971695593;-0.52001953125;-0.000462371826171875;-0.51898193359375;3;;
603;;;;;;;5958.86385795532;-0.517578125;-0.00046197509765625;-0.5164794921875;3;;
604;;;;;;;5959.1079989547;-0.51513671875;-0.0004615478515625;-0.514068603515625;3;;
605;;;;;;;5959.35213995408;-0.5126953125;-0.000461181640625;-0.51165771484375;3;;
606;;;;;;;5959.59628095347;-0.51025390625;-0.0004608154296875;-0.5091552734375;3;;
607;;;;;;;5959.84042195285;-0.5078125;-0.000460418701171875;-0.50677490234375;3;;
608;;;;;;;5960.08456295223;-0.50537109375;-0.00046002197265625;-0.504302978515625;3;;
609;;;;;;;5960.32870395162;-0.5029296875;-0.000459625244140625;-0.50189208984375;3;;
610;;;;;;;5960.572844951;-0.50048828125;-0.000459259033203125;-0.499481201171875;3;;
611;;;;;;;5960.81698595038;-0.498046875;-0.0004588623046875;-0.49700927734375;3;;
612;;;;;;;5961.06112694977;-0.49560546875;-0.000458465576171875;-0.494537353515625;3;;
613;;;;;;;5961.30526794915;-0.4931640625;-0.000458038330078125;-0.49212646484375;3;;
614;;;;;;;5961.54940894853;-0.49072265625;-0.000457672119140625;-0.4896240234375;3;;
615;;;;;;;5961.79354994792;-0.48828125;-0.000457305908203125;-0.4873046875;3;;
616;;;;;;;5962.0376909473;-0.48583984375;-0.0004569091796875;-0.48486328125;3;;
617;;;;;;;5962.28183194669;-0.4833984375;-0.000456512451171875;-0.48236083984375;3;;
618;;;;;;;5962.52597294607;-0.48095703125;-0.00045611572265625;-0.479888916015625;3;;
619;;;;;;;5962.77011394545;-0.478515625;-0.0004556884765625;-0.4775390625;3;;
620;;;;;;;5963.01425494484;-0.47607421875;-0.000455230712890625;-0.475067138671875;3;;
621;;;;;;;5963.25839594422;-0.4736328125;-0.000454803466796875;-0.472625732421875;3;;
622;;;;;;;5963.5025369436;-0.47119140625;-0.000454345703125;-0.470184326171875;3;;
623;;;;;;;5963.74667794299;-0.46875;-0.00045391845703125;-0.4677734375;3;;
624;;;;;;;5963.99081894237;-0.46630859375;-0.0004534912109375;-0.46533203125;3;;
625;;;;;;;5964.23495994175;-0.4638671875;-0.000453033447265625;-0.462860107421875;3;;
626;;;;;;;5964.47910094114;-0.46142578125;-0.00045257568359375;-0.46044921875;3;;
627;;;;;;;5964.72324194052;-0.458984375;-0.0004520263671875;-0.4580078125;3;;
628;;;;;;;5964.96738293991;-0.45654296875;-0.000451507568359375;-0.45562744140625;3;;
629;;;;;;;5965.21152393929;-0.4541015625;-0.000450897216796875;-0.45318603515625;3;;
630;;;;;;;5965.45566493867;-0.45166015625;-0.000450286865234375;-0.450653076171875;3;;
631;;;;;;;5965.69980593806;-0.44921875;-0.000449615478515625;-0.4482421875;3;;
632;;;;;;;5965.94394693744;-0.44677734375;-0.00044891357421875;-0.445831298828125;3;;
633;;;;;;;5966.18808793682;-0.4443359375;-0.0004482421875;-0.44342041015625;3;;
634;;;;;;;5966.43222893621;-0.44189453125;-0.000447479248046875;-0.441009521484375;3;;
635;;;;;;;5966.67636993559;-0.439453125;-0.00044671630859375;-0.4384765625;3;;
636;;;;;;;5966.92051093497;-0.43701171875;-0.00044586181640625;-0.436065673828125;3;;
637;;;;;;;5967.16465193436;-0.4345703125;-0.0004449462890625;-0.43359375;3;;
638;;;;;;;5967.40879293374;-0.43212890625;-0.0004439697265625;-0.431182861328125;3;;
639;;;;;;;5967.65293393312;-0.4296875;-0.0004429931640625;-0.428802490234375;3;;
640;;;;;;;5967.89707493251;-0.42724609375;-0.00044183349609375;-0.4263916015625;3;;
641;;;;;;;5968.14121593189;-0.4248046875;-0.000440643310546875;-0.42388916015625;3;;
642;;;;;;;5968.38535693128;-0.42236328125;-0.000439361572265625;-0.42144775390625;3;;
643;;;;;;;5968.62949793066;-0.419921875;-0.00043798828125;-0.419036865234375;3;;
644;;;;;;;5968.87363893004;-0.41748046875;-0.00043646240234375;-0.416595458984375;3;;
645;;;;;;;5969.11777992943;-0.4150390625;-0.00043487548828125;-0.41412353515625;3;;
646;;;;;;;5969.36192092881;-0.41259765625;-0.00043310546875;-0.4117431640625;3;;
647;;;;;;;5969.60606192819;-0.41015625;-0.000431243896484375;-0.409271240234375;3;;
648;;;;;;;5969.85020292758;-0.40771484375;-0.000429290771484375;-0.406829833984375;3;;
649;;;;;;;5970.09434392696;-0.4052734375;-0.000427276611328125;-0.40435791015625;3;;
650;;;;;;;5970.33848492634;-0.40283203125;-0.000425140380859375;-0.4019775390625;3;;
651;;;;;;;5970.58262592573;-0.400390625;-0.000422882080078125;-0.399505615234375;3;;
652;;;;;;;5970.82676692511;-0.39794921875;-0.000420501708984375;-0.397064208984375;3;;
653;;;;;;;5971.0709079245;-0.3955078125;-0.00041796875;-0.39459228515625;3;;
654;;;;;;;5971.31504892388;-0.39306640625;-0.000415313720703125;-0.392181396484375;3;;
655;;;;;;;5971.55918992326;-0.390625;-0.0004124755859375;-0.3897705078125;3;;
656;;;;;;;5971.80333092265;-0.38818359375;-0.00040948486328125;-0.387237548828125;3;;
657;;;;;;;5972.04747192203;-0.3857421875;-0.000406341552734375;-0.384918212890625;3;;
658;;;;;;;5972.29161292141;-0.38330078125;-0.000403045654296875;-0.3824462890625;3;;
659;;;;;;;5972.5357539208;-0.380859375;-0.00039959716796875;-0.3800048828125;3;;
660;;;;;;;5972.77989492018;-0.37841796875;-0.00039599609375;-0.37762451171875;3;;
661;;;;;;;5973.02403591956;-0.3759765625;-0.0003922119140625;-0.375152587890625;3;;
662;;;;;;;5973.26817691895;-0.37353515625;-0.000388336181640625;-0.372650146484375;3;;
663;;;;;;;5973.51231791833;-0.37109375;-0.000384246826171875;-0.37030029296875;3;;
664;;;;;;;5973.75645891771;-0.36865234375;-0.000379974365234375;-0.367889404296875;3;;
665;;;;;;;5974.0005999171;-0.3662109375;-0.0003756103515625;-0.365386962890625;3;;
666;;;;;;;5974.24474091648;-0.36376953125;-0.000371002197265625;-0.362945556640625;3;;
667;;;;;;;5974.48888191587;-0.361328125;-0.000366302490234375;-0.360595703125;3;;
668;;;;;;;5974.73302291525;-0.35888671875;-0.0003614501953125;-0.358062744140625;3;;
669;;;;;;;5974.97716391463;-0.3564453125;-0.000356414794921875;-0.355621337890625;3;;
670;;;;;;;5975.22130491402;-0.35400390625;-0.00035125732421875;-0.353240966796875;3;;
671;;;;;;;5975.4654459134;-0.3515625;-0.0003460693359375;-0.350799560546875;3;;
672;;;;;;;5975.70958691278;-0.34912109375;-0.00034063720703125;-0.348297119140625;3;;
673;;;;;;;5975.95372791217;-0.3466796875;-0.000335052490234375;-0.34588623046875;3;;
674;;;;;;;5976.19786891155;-0.34423828125;-0.000329345703125;-0.343475341796875;3;;
675;;;;;;;5976.44200991093;-0.341796875;-0.00032354736328125;-0.341064453125;3;;
676;;;;;;;5976.68615091032;-0.33935546875;-0.000317657470703125;-0.338592529296875;3;;
677;;;;;;;5976.9302919097;-0.3369140625;-0.000311676025390625;-0.336151123046875;3;;
678;;;;;;;5977.17443290909;-0.33447265625;-0.000305572509765625;-0.333740234375;3;;
679;;;;;;;5977.41857390847;-0.33203125;-0.0002994384765625;-0.331207275390625;3;;
680;;;;;;;5977.66271490785;-0.32958984375;-0.000293212890625;-0.328857421875;3;;
681;;;;;;;5977.90685590724;-0.3271484375;-0.000286895751953125;-0.326416015625;3;;
682;;;;;;;5978.15099690662;-0.32470703125;-0.00028057861328125;-0.323974609375;3;;
683;;;;;;;5978.395137906;-0.322265625;-0.000274200439453125;-0.321502685546875;3;;
684;;;;;;;5978.63927890539;-0.31982421875;-0.000267822265625;-0.319061279296875;3;;
685;;;;;;;5978.88341990477;-0.3173828125;-0.0002613525390625;-0.316680908203125;3;;
686;;;;;;;5979.12756090415;-0.31494140625;-0.00025494384765625;-0.314239501953125;3;;
687;;;;;;;5979.37170190354;-0.3125;-0.00024847412109375;-0.311767578125;3;;
688;;;;;;;5979.61584290292;-0.31005859375;-0.000242034912109375;-0.309356689453125;3;;
689;;;;;;;5979.8599839023;-0.3076171875;-0.000235626220703125;-0.306976318359375;3;;
690;;;;;;;5980.10412490169;-0.30517578125;-0.000229248046875;-0.30438232421875;3;;
691;;;;;;;5980.34826590107;-0.302734375;-0.000222900390625;-0.302032470703125;3;;
692;;;;;;;5980.59240690046;-0.30029296875;-0.000216583251953125;-0.299591064453125;3;;
693;;;;;;;5980.83654789984;-0.2978515625;-0.0002103271484375;-0.297119140625;3;;
694;;;;;;;5981.08068889922;-0.29541015625;-0.00020416259765625;-0.294708251953125;3;;
695;;;;;;;5981.32482989861;-0.29296875;-0.000198028564453125;-0.29229736328125;3;;
696;;;;;;;5981.56897089799;-0.29052734375;-0.00019195556640625;-0.28985595703125;3;;
697;;;;;;;5981.81311189737;-0.2880859375;-0.000186004638671875;-0.287353515625;3;;
698;;;;;;;5982.05725289676;-0.28564453125;-0.00018011474609375;-0.284942626953125;3;;
699;;;;;;;5982.30139389614;-0.283203125;-0.00017431640625;-0.28253173828125;3;;
700;;;;;;;5982.54553489552;-0.28076171875;-0.000168609619140625;-0.2801513671875;3;;
701;;;;;;;5982.78967589491;-0.2783203125;-0.00016302490234375;-0.277679443359375;3;;
702;;;;;;;5983.03381689429;-0.27587890625;-0.000157501220703125;-0.275238037109375;3;;
703;;;;;;;5983.27795789368;-0.2734375;-0.00015216064453125;-0.272796630859375;3;;
704;;;;;;;5983.52209889306;-0.27099609375;-0.0001468505859375;-0.27032470703125;3;;
705;;;;;;;5983.76623989244;-0.2685546875;-0.000141632080078125;-0.267913818359375;3;;
706;;;;;;;5984.01038089183;-0.26611328125;-0.000136566162109375;-0.265472412109375;3;;
707;;;;;;;5984.25452189121;-0.263671875;-0.00013165283203125;-0.263092041015625;3;;
708;;;;;;;5984.49866289059;-0.26123046875;-0.0001268310546875;-0.260589599609375;3;;
709;;;;;;;5984.74280388998;-0.2587890625;-0.00012213134765625;-0.2581787109375;3;;
710;;;;;;;5984.98694488936;-0.25634765625;-0.000117584228515625;-0.2557373046875;3;;
711;;;;;;;5985.23108588874;-0.25390625;-0.000113128662109375;-0.2532958984375;3;;
712;;;;;;;5985.47522688813;-0.25146484375;-0.000108795166015625;-0.250823974609375;3;;
713;;;;;;;5985.71936788751;-0.2490234375;-0.000104583740234375;-0.248504638671875;3;;
714;;;;;;;5985.96350888689;-0.24658203125;-0.0001004638671875;-0.246002197265625;3;;
715;;;;;;;5986.20764988628;-0.244140625;-9.6527099609375E-05;-0.24359130859375;3;;
716;;;;;;;5986.45179088566;-0.24169921875;-9.2681884765625E-05;-0.241119384765625;3;;
717;;;;;;;5986.69593188505;-0.2392578125;-8.892822265625E-05;-0.2386474609375;3;;
718;;;;;;;5986.94007288443;-0.23681640625;-8.53271484375E-05;-0.236236572265625;3;;
719;;;;;;;5987.18421388381;-0.234375;-8.184814453125E-05;-0.233795166015625;3;;
720;;;;;;;5987.4283548832;-0.23193359375;-7.8521728515625E-05;-0.23126220703125;3;;
721;;;;;;;5987.67249588258;-0.2294921875;-7.5225830078125E-05;-0.2288818359375;3;;
722;;;;;;;5987.91663688196;-0.22705078125;-7.2052001953125E-05;-0.2264404296875;3;;
723;;;;;;;5988.16077788135;-0.224609375;-6.903076171875E-05;-0.224029541015625;3;;
724;;;;;;;5988.40491888073;-0.22216796875;-6.6070556640625E-05;-0.2215576171875;3;;
725;;;;;;;5988.64905988011;-0.2197265625;-6.3232421875E-05;-0.2191162109375;3;;
726;;;;;;;5988.8932008795;-0.21728515625;-6.0516357421875E-05;-0.216705322265625;3;;
727;;;;;;;5989.13734187888;-0.21484375;-5.7861328125E-05;-0.2142333984375;3;;
728;;;;;;;5989.38148287827;-0.21240234375;-5.535888671875E-05;-0.21185302734375;3;;
729;;;;;;;5989.62562387765;-0.2099609375;-5.291748046875E-05;-0.20941162109375;3;;
730;;;;;;;5989.86976487703;-0.20751953125;-5.0567626953125E-05;-0.20697021484375;3;;
731;;;;;;;5990.11390587642;-0.205078125;-4.83245849609375E-05;-0.20452880859375;3;;
732;;;;;;;5990.3580468758;-0.20263671875;-4.61669921875E-05;-0.20208740234375;3;;
733;;;;;;;5990.60218787518;-0.2001953125;-4.40948486328125E-05;-0.199615478515625;3;;
734;;;;;;;5990.84632887457;-0.19775390625;-4.2095947265625E-05;-0.197235107421875;3;;
735;;;;;;;5991.09046987395;-0.1953125;-4.017333984375E-05;-0.19482421875;3;;
736;;;;;;;5991.33461087333;-0.19287109375;-3.8336181640625E-05;-0.192352294921875;3;;
737;;;;;;;5991.57875187272;-0.1904296875;-3.65447998046875E-05;-0.189910888671875;3;;
738;;;;;;;5991.8228928721;-0.18798828125;-3.4820556640625E-05;-0.187530517578125;3;;
739;;;;;;;5992.06703387149;-0.185546875;-3.32061767578125E-05;-0.185028076171875;3;;
740;;;;;;;5992.31117487087;-0.18310546875;-3.16314697265625E-05;-0.182586669921875;3;;
741;;;;;;;5992.55531587025;-0.1806640625;-3.011474609375E-05;-0.18017578125;3;;
742;;;;;;;5992.79945686964;-0.17822265625;-2.8692626953125E-05;-0.177734375;3;;
743;;;;;;;5993.04359786902;-0.17578125;-2.7294921875E-05;-0.175323486328125;3;;
744;;;;;;;5993.2877388684;-0.17333984375;-2.59490966796875E-05;-0.1728515625;3;;
745;;;;;;;5993.53187986779;-0.1708984375;-2.4676513671875E-05;-0.170440673828125;3;;
746;;;;;;;5993.77602086717;-0.16845703125;-2.34588623046875E-05;-0.16802978515625;3;;
747;;;;;;;5994.02016186655;-0.166015625;-2.22900390625E-05;-0.16558837890625;3;;
748;;;;;;;5994.26430286594;-0.16357421875;-2.11517333984375E-05;-0.163116455078125;3;;
749;;;;;;;5994.50844386532;-0.1611328125;-2.00927734375E-05;-0.160675048828125;3;;
750;;;;;;;5994.7525848647;-0.15869140625;-1.903076171875E-05;-0.158233642578125;3;;
751;;;;;;;5994.99672586409;-0.15625;-1.8035888671875E-05;-0.15582275390625;3;;
752;;;;;;;5995.24086686347;-0.15380859375;-1.70684814453125E-05;-0.15338134765625;3;;
753;;;;;;;5995.48500786286;-0.1513671875;-1.61376953125E-05;-0.15093994140625;3;;
754;;;;;;;5995.72914886224;-0.14892578125;-1.5264892578125E-05;-0.14849853515625;3;;
755;;;;;;;5995.97328986162;-0.146484375;-1.44073486328125E-05;-0.1461181640625;3;;
756;;;;;;;5996.21743086101;-0.14404296875;-1.3555908203125E-05;-0.14361572265625;3;;
757;;;;;;;5996.46157186039;-0.1416015625;-1.27777099609375E-05;-0.141204833984375;3;;
758;;;;;;;5996.70571285977;-0.13916015625;-1.2030029296875E-05;-0.1387939453125;3;;
759;;;;;;;5996.94985385916;-0.13671875;-1.12884521484375E-05;-0.1363525390625;3;;
760;;;;;;;5997.19399485854;-0.13427734375;-1.058349609375E-05;-0.133880615234375;3;;
761;;;;;;;5997.43813585792;-0.1318359375;-9.930419921875E-06;-0.131439208984375;3;;
762;;;;;;;5997.68227685731;-0.12939453125;-9.283447265625E-06;-0.128936767578125;3;;
763;;;;;;;5997.92641785669;-0.126953125;-8.6456298828125E-06;-0.126556396484375;3;;
764;;;;;;;5998.17055885608;-0.12451171875;-8.0291748046875E-06;-0.124114990234375;3;;
765;;;;;;;5998.41469985546;-0.1220703125;-7.470703125E-06;-0.121673583984375;3;;
766;;;;;;;5998.65884085484;-0.11962890625;-6.9000244140625E-06;-0.119232177734375;3;;
767;;;;;;;5998.90298185423;-0.1171875;-6.3934326171875E-06;-0.1168212890625;3;;
768;;;;;;;5999.14712285361;-0.11474609375;-5.841064453125E-06;-0.1143798828125;3;;
769;;;;;;;5999.39126385299;-0.1123046875;-5.3619384765625E-06;-0.1119384765625;3;;
770;;;;;;;5999.63540485238;-0.10986328125;-4.840087890625E-06;-0.109466552734375;3;;
771;;;;;;;5999.87954585176;-0.107421875;-4.39453125E-06;-0.107086181640625;3;;
772;;;;;;;6000.12368685114;-0.10498046875;-3.9337158203125E-06;-0.10467529296875;3;;
773;;;;;;;6000.36782785053;-0.1025390625;-3.458251953125E-06;-0.1021728515625;3;;
774;;;;;;;6000.61196884991;-0.10009765625;-3.01513671875E-06;-0.0997314453125;3;;
775;;;;;;;6000.85610984929;-0.09765625;-2.58819580078125E-06;-0.09735107421875;3;;
776;;;;;;;6001.10025084868;-0.09521484375;-2.16705322265625E-06;-0.0948486328125;3;;
777;;;;;;;6001.34439184806;-0.0927734375;-1.7315673828125E-06;-0.0924072265625;3;;
778;;;;;;;6001.58853284745;-0.09033203125;-1.33331298828125E-06;-0.089996337890625;3;;
779;;;;;;;6001.83267384683;-0.087890625;-9.161376953125E-07;-0.087554931640625;3;;
780;;;;;;;6002.07681484621;-0.08544921875;-5.364990234375E-07;-0.085174560546875;3;;
781;;;;;;;6002.3209558456;-0.0830078125;-1.5625E-07;-0.08270263671875;3;;
782;;;;;;;6002.56509684498;-0.08056640625;2.301025390625E-07;-0.080291748046875;3;;
783;;;;;;;6002.80923784436;-0.078125;6.1004638671875E-07;-0.077850341796875;3;;
784;;;;;;;6003.05337884375;-0.07568359375;9.8968505859375E-07;-0.0755615234375;3;;
785;;;;;;;6003.29751984313;-0.0732421875;1.35986328125E-06;-0.072967529296875;3;;
786;;;;;;;6003.54166084251;-0.07080078125;1.73553466796875E-06;-0.070709228515625;3;;
787;;;;;;;6003.7858018419;-0.068359375;2.10479736328125E-06;-0.068267822265625;3;;
788;;;;;;;6004.02994284128;-0.06591796875;2.48504638671875E-06;-0.0660400390625;3;;
789;;;;;;;6004.27408384067;-0.0634765625;2.8546142578125E-06;-0.06353759765625;3;;
790;;;;;;;6004.51822484005;-0.06103515625;3.18023681640625E-06;-0.061248779296875;3;;
791;;;;;;;6004.76236583943;-0.05859375;3.57177734375E-06;-0.0584716796875;3;;
792;;;;;;;6005.00650683882;-0.05615234375;3.8818359375E-06;-0.055938720703125;3;;
793;;;;;;;6005.2506478382;-0.0537109375;4.2449951171875E-06;-0.053497314453125;3;;
794;;;;;;;6005.49478883758;-0.05126953125;4.6112060546875E-06;-0.0511474609375;3;;
795;;;;;;;6005.73892983697;-0.048828125;4.96826171875E-06;-0.0485137939453125;3;;
796;;;;;;;6005.98307083635;-0.04638671875;5.3131103515625E-06;-0.046051025390625;3;;
797;;;;;;;6006.22721183573;-0.0439453125;5.62744140625E-06;-0.0436248779296875;3;;
798;;;;;;;6006.47135283512;-0.04150390625;5.9814453125E-06;-0.041168212890625;3;;
799;;;;;;;6006.7154938345;-0.0390625;6.3079833984375E-06;-0.0387664794921875;3;;
800;;;;;;;6006.95963483388;-0.03662109375;6.622314453125E-06;-0.036328125;3;;
801;;;;;;;6007.20377583327;-0.0341796875;6.97021484375E-06;-0.033966064453125;3;;
802;;;;;;;6007.44791683265;-0.03173828125;7.269287109375E-06;-0.0314666748046875;3;;
803;;;;;;;6007.69205783204;-0.029296875;7.5714111328125E-06;-0.029010009765625;3;;
804;;;;;;;6007.93619883142;-0.02685546875;7.8338623046875E-06;-0.0265350341796875;3;;
805;;;;;;;6008.1803398308;-0.0244140625;8.123779296875E-06;-0.0241455078125;3;;
806;;;;;;;6008.42448083019;-0.02197265625;8.38623046875E-06;-0.0217010498046875;3;;
807;;;;;;;6008.66862182957;-0.01953125;8.642578125E-06;-0.01929931640625;3;;
808;;;;;;;6008.91276282895;-0.01708984375;8.917236328125E-06;-0.0168365478515625;3;;
809;;;;;;;6009.15690382834;-0.0146484375;9.1278076171875E-06;-0.01439208984375;3;;
810;;;;;;;6009.40104482772;-0.01220703125;9.3475341796875E-06;-0.0119354248046875;3;;
811;;;;;;;6009.6451858271;-0.009765625;9.5428466796875E-06;-0.00949707031249999;3;;
812;;;;;;;6009.88932682649;-0.00732421875;9.7381591796875E-06;-0.00707397460937501;3;;
813;;;;;;;6010.13346782587;-0.0048828125;9.8846435546875E-06;-0.0046356201171875;3;;
814;;;;;;;6010.37760882526;-0.00244140625;1.0052490234375E-05;-0.002215576171875;3;;
815;;;;;;;6010.62174982464;0;1.0211181640625E-05;0.0002288818359375;3;;
816;;;;;;;6010.86589082402;0.00244140625;1.03118896484375E-05;0.00267333984375;3;;
817;;;;;;;6011.11003182341;0.0048828125;1.04339599609375E-05;0.00511779785156249;3;;
818;;;;;;;6011.35417282279;0.00732421875;1.051025390625E-05;0.007476806640625;3;;
819;;;;;;;6011.59831382217;0.009765625;1.0595703125E-05;0.009991455078125;3;;
820;;;;;;;6011.84245482156;0.01220703125;1.0650634765625E-05;0.0124664306640625;3;;
821;;;;;;;6012.08659582094;0.009765625;9.5733642578125E-06;0.00994873046875;3;;
822;;;;;;;6012.33073682032;0.00732421875;8.734130859375E-06;0.007568359375;3;;
823;;;;;;;6012.57487781971;0.0048828125;7.9742431640625E-06;0.00512084960937501;3;;
824;;;;;;;6012.81901881909;0.00244140625;7.275390625E-06;0.0026824951171875;3;;
825;;;;;;;6013.06315981847;0;6.671142578125E-06;0.000219726562499994;3;;
826;;;;;;;6013.30730081786;-0.00244140625;6.109619140625E-06;-0.002197265625;3;;
827;;;;;;;6013.55144181724;-0.0048828125;5.5908203125E-06;-0.00464477539062499;3;;
828;;;;;;;6013.79558281663;-0.00732421875;5.157470703125E-06;-0.00708618164062499;3;;
829;;;;;;;6014.03972381601;-0.009765625;4.718017578125E-06;-0.0095184326171875;3;;
830;;;;;;;6014.28386481539;-0.01220703125;4.3060302734375E-06;-0.0119384765625;3;;
831;;;;;;;;;;;;;
832;;;;;;;;;;;;;
833;;;;;;;;;;;;;
834;;;;;;;;;;;;;
835;;;;;;;;;;;;;
836;;;;;;;;;;;;;
837;;;;;;;;;;;;;
838;;;;;;;;;;;;;
839;;;;;;;;;;;;;
840;;;;;;;;;;;;;
841;;;;;;;;;;;;;
842;;;;;;;;;;;;;
843;;;;;;;;;;;;;
844;;;;;;;;;;;;;
845;;;;;;;;;;;;;
846;;;;;;;;;;;;;
847;;;;;;;;;;;;;
848;;;;;;;;;;;;;
849;;;;;;;;;;;;;
850;;;;;;;;;;;;;
851;;;;;;;;;;;;;
852;;;;;;;;;;;;;
853;;;;;;;;;;;;;
854;;;;;;;;;;;;;
855;;;;;;;;;;;;;
856;;;;;;;;;;;;;
857;;;;;;;;;;;;;
858;;;;;;;;;;;;;
859;;;;;;;;;;;;;
860;;;;;;;;;;;;;
861;;;;;;;;;;;;;
862;;;;;;;;;;;;;
863;;;;;;;;;;;;;
864;;;;;;;;;;;;;
865;;;;;;;;;;;;;
866;;;;;;;;;;;;;
867;;;;;;;;;;;;;
868;;;;;;;;;;;;;
869;;;;;;;;;;;;;
870;;;;;;;;;;;;;
871;;;;;;;;;;;;;
872;;;;;;;;;;;;;
873;;;;;;;;;;;;;
874;;;;;;;;;;;;;
875;;;;;;;;;;;;;
876;;;;;;;;;;;;;
877;;;;;;;;;;;;;
878;;;;;;;;;;;;;
879;;;;;;;;;;;;;
880;;;;;;;;;;;;;
881;;;;;;;;;;;;;
882;;;;;;;;;;;;;
883;;;;;;;;;;;;;
884;;;;;;;;;;;;;
885;;;;;;;;;;;;;
886;;;;;;;;;;;;;
887;;;;;;;;;;;;;
888;;;;;;;;;;;;;
889;;;;;;;;;;;;;
890;;;;;;;;;;;;;
891;;;;;;;;;;;;;
892;;;;;;;;;;;;;
893;;;;;;;;;;;;;
894;;;;;;;;;;;;;
895;;;;;;;;;;;;;
896;;;;;;;;;;;;;
897;;;;;;;;;;;;;
898;;;;;;;;;;;;;
899;;;;;;;;;;;;;
900;;;;;;;;;;;;;
901;;;;;;;;;;;;;
902;;;;;;;;;;;;;
903;;;;;;;;;;;;;
904;;;;;;;;;;;;;
905;;;;;;;;;;;;;
906;;;;;;;;;;;;;
907;;;;;;;;;;;;;
908;;;;;;;;;;;;;
909;;;;;;;;;;;;;
910;;;;;;;;;;;;;
911;;;;;;;;;;;;;
912;;;;;;;;;;;;;
913;;;;;;;;;;;;;
914;;;;;;;;;;;;;
915;;;;;;;;;;;;;
916;;;;;;;;;;;;;
917;;;;;;;;;;;;;
918;;;;;;;;;;;;;
919;;;;;;;;;;;;;
920;;;;;;;;;;;;;
921;;;;;;;;;;;;;
922;;;;;;;;;;;;;
923;;;;;;;;;;;;;
924;;;;;;;;;;;;;
925;;;;;;;;;;;;;
926;;;;;;;;;;;;;
927;;;;;;;;;;;;;
928;;;;;;;;;;;;;
929;;;;;;;;;;;;;
930;;;;;;;;;;;;;
931;;;;;;;;;;;;;
932;;;;;;;;;;;;;
933;;;;;;;;;;;;;
934;;;;;;;;;;;;;
935;;;;;;;;;;;;;
936;;;;;;;;;;;;;
937;;;;;;;;;;;;;
938;;;;;;;;;;;;;
939;;;;;;;;;;;;;
940;;;;;;;;;;;;;
941;;;;;;;;;;;;;
942;;;;;;;;;;;;;
943;;;;;;;;;;;;;
944;;;;;;;;;;;;;
945;;;;;;;;;;;;;
946;;;;;;;;;;;;;
947;;;;;;;;;;;;;
948;;;;;;;;;;;;;
949;;;;;;;;;;;;;
950;;;;;;;;;;;;;
951;;;;;;;;;;;;;
952;;;;;;;;;;;;;
953;;;;;;;;;;;;;
954;;;;;;;;;;;;;
955;;;;;;;;;;;;;
956;;;;;;;;;;;;;
957;;;;;;;;;;;;;
958;;;;;;;;;;;;;
959;;;;;;;;;;;;;
960;;;;;;;;;;;;;
961;;;;;;;;;;;;;
962;;;;;;;;;;;;;
963;;;;;;;;;;;;;
964;;;;;;;;;;;;;
965;;;;;;;;;;;;;
966;;;;;;;;;;;;;
967;;;;;;;;;;;;;
968;;;;;;;;;;;;;
969;;;;;;;;;;;;;
970;;;;;;;;;;;;;
971;;;;;;;;;;;;;
972;;;;;;;;;;;;;
973;;;;;;;;;;;;;
974;;;;;;;;;;;;;
975;;;;;;;;;;;;;
976;;;;;;;;;;;;;
977;;;;;;;;;;;;;
978;;;;;;;;;;;;;
979;;;;;;;;;;;;;
980;;;;;;;;;;;;;
981;;;;;;;;;;;;;
982;;;;;;;;;;;;;
983;;;;;;;;;;;;;
984;;;;;;;;;;;;;
985;;;;;;;;;;;;;
986;;;;;;;;;;;;;
987;;;;;;;;;;;;;
988;;;;;;;;;;;;;
989;;;;;;;;;;;;;
990;;;;;;;;;;;;;
991;;;;;;;;;;;;;
992;;;;;;;;;;;;;
993;;;;;;;;;;;;;
994;;;;;;;;;;;;;
995;;;;;;;;;;;;;
996;;;;;;;;;;;;;
997;;;;;;;;;;;;;
998;;;;;;;;;;;;;
999;;;;;;;;;;;;;
1000;;;;;;;;;;;;;
1001;;;;;;;;;;;;;
1002;;;;;;;;;;;;;
1003;;;;;;;;;;;;;
1004;;;;;;;;;;;;;
1005;;;;;;;;;;;;;
1006;;;;;;;;;;;;;
1007;;;;;;;;;;;;;
1008;;;;;;;;;;;;;
1009;;;;;;;;;;;;;
1010;;;;;;;;;;;;;
1011;;;;;;;;;;;;;
1012;;;;;;;;;;;;;
1013;;;;;;;;;;;;;
1014;;;;;;;;;;;;;
1015;;;;;;;;;;;;;
1016;;;;;;;;;;;;;
1017;;;;;;;;;;;;;
1018;;;;;;;;;;;;;
1019;;;;;;;;;;;;;
1020;;;;;;;;;;;;;
1021;;;;;;;;;;;;;
1022;;;;;;;;;;;;;
1023;;;;;;;;;;;;;
1024;;;;;;;;;;;;;
1025;;;;;;;;;;;;;
1026;;;;;;;;;;;;;
1027;;;;;;;;;;;;;
1028;;;;;;;;;;;;;
1029;;;;;;;;;;;;;
1030;;;;;;;;;;;;;
1031;;;;;;;;;;;;;
1032;;;;;;;;;;;;;
1033;;;;;;;;;;;;;
1034;;;;;;;;;;;;;
1035;;;;;;;;;;;;;
1036;;;;;;;;;;;;;
1037;;;;;;;;;;;;;
1038;;;;;;;;;;;;;
1039;;;;;;;;;;;;;
1040;;;;;;;;;;;;;
1041;;;;;;;;;;;;;
1042;;;;;;;;;;;;;
1043;;;;;;;;;;;;;
1044;;;;;;;;;;;;;
1045;;;;;;;;;;;;;
1046;;;;;;;;;;;;;
1047;;;;;;;;;;;;;
1048;;;;;;;;;;;;;
1049;;;;;;;;;;;;;
1050;;;;;;;;;;;;;
1051;;;;;;;;;;;;;
1052;;;;;;;;;;;;;
1053;;;;;;;;;;;;;
1054;;;;;;;;;;;;;
1055;;;;;;;;;;;;;
1056;;;;;;;;;;;;;
1057;;;;;;;;;;;;;
1058;;;;;;;;;;;;;
1059;;;;;;;;;;;;;
1060;;;;;;;;;;;;;
1061;;;;;;;;;;;;;
1062;;;;;;;;;;;;;
1063;;;;;;;;;;;;;
1064;;;;;;;;;;;;;
1065;;;;;;;;;;;;;
1066;;;;;;;;;;;;;
1067;;;;;;;;;;;;;
1068;;;;;;;;;;;;;
1069;;;;;;;;;;;;;
1070;;;;;;;;;;;;;
1071;;;;;;;;;;;;;
1072;;;;;;;;;;;;;
1073;;;;;;;;;;;;;
1074;;;;;;;;;;;;;
1075;;;;;;;;;;;;;
1076;;;;;;;;;;;;;
1077;;;;;;;;;;;;;
1078;;;;;;;;;;;;;
1079;;;;;;;;;;;;;
1080;;;;;;;;;;;;;
1081;;;;;;;;;;;;;
1082;;;;;;;;;;;;;
1083;;;;;;;;;;;;;
1084;;;;;;;;;;;;;
1085;;;;;;;;;;;;;
1086;;;;;;;;;;;;;
1087;;;;;;;;;;;;;
1088;;;;;;;;;;;;;
1089;;;;;;;;;;;;;
1090;;;;;;;;;;;;;
1091;;;;;;;;;;;;;
1092;;;;;;;;;;;;;
1093;;;;;;;;;;;;;
1094;;;;;;;;;;;;;
1095;;;;;;;;;;;;;
1096;;;;;;;;;;;;;
1097;;;;;;;;;;;;;
1098;;;;;;;;;;;;;
1099;;;;;;;;;;;;;
1100;;;;;;;;;;;;;
1101;;;;;;;;;;;;;
1102;;;;;;;;;;;;;
1103;;;;;;;;;;;;;
1104;;;;;;;;;;;;;
1105;;;;;;;;;;;;;
1106;;;;;;;;;;;;;
1107;;;;;;;;;;;;;
1108;;;;;;;;;;;;;
1109;;;;;;;;;;;;;
1110;;;;;;;;;;;;;
1111;;;;;;;;;;;;;
1112;;;;;;;;;;;;;
1113;;;;;;;;;;;;;
1114;;;;;;;;;;;;;
1115;;;;;;;;;;;;;
1116;;;;;;;;;;;;;
1117;;;;;;;;;;;;;
1118;;;;;;;;;;;;;
1119;;;;;;;;;;;;;
1120;;;;;;;;;;;;;
1121;;;;;;;;;;;;;
1122;;;;;;;;;;;;;
1123;;;;;;;;;;;;;
1124;;;;;;;;;;;;;
1125;;;;;;;;;;;;;
1126;;;;;;;;;;;;;
1127;;;;;;;;;;;;;
1128;;;;;;;;;;;;;
1129;;;;;;;;;;;;;
1130;;;;;;;;;;;;;
1131;;;;;;;;;;;;;
1132;;;;;;;;;;;;;
1133;;;;;;;;;;;;;
1134;;;;;;;;;;;;;
1135;;;;;;;;;;;;;
1136;;;;;;;;;;;;;
1137;;;;;;;;;;;;;
1138;;;;;;;;;;;;;
1139;;;;;;;;;;;;;
1140;;;;;;;;;;;;;
1141;;;;;;;;;;;;;
1142;;;;;;;;;;;;;
1143;;;;;;;;;;;;;
1144;;;;;;;;;;;;;
1145;;;;;;;;;;;;;
1146;;;;;;;;;;;;;
1147;;;;;;;;;;;;;
1148;;;;;;;;;;;;;
1149;;;;;;;;;;;;;
1150;;;;;;;;;;;;;
1151;;;;;;;;;;;;;
1152;;;;;;;;;;;;;
1153;;;;;;;;;;;;;
1154;;;;;;;;;;;;;
1155;;;;;;;;;;;;;
1156;;;;;;;;;;;;;
1157;;;;;;;;;;;;;
1158;;;;;;;;;;;;;
1159;;;;;;;;;;;;;
1160;;;;;;;;;;;;;
1161;;;;;;;;;;;;;
1162;;;;;;;;;;;;;
1163;;;;;;;;;;;;;
1164;;;;;;;;;;;;;
1165;;;;;;;;;;;;;
1166;;;;;;;;;;;;;
1167;;;;;;;;;;;;;
1168;;;;;;;;;;;;;
1169;;;;;;;;;;;;;
1170;;;;;;;;;;;;;
1171;;;;;;;;;;;;;
1172;;;;;;;;;;;;;
1173;;;;;;;;;;;;;
1174;;;;;;;;;;;;;
1175;;;;;;;;;;;;;
1176;;;;;;;;;;;;;
1177;;;;;;;;;;;;;
1178;;;;;;;;;;;;;
1179;;;;;;;;;;;;;
1180;;;;;;;;;;;;;
1181;;;;;;;;;;;;;
1182;;;;;;;;;;;;;
1183;;;;;;;;;;;;;
1184;;;;;;;;;;;;;
1185;;;;;;;;;;;;;
1186;;;;;;;;;;;;;
1187;;;;;;;;;;;;;
1188;;;;;;;;;;;;;
1189;;;;;;;;;;;;;
1190;;;;;;;;;;;;;
1191;;;;;;;;;;;;;
1192;;;;;;;;;;;;;
1193;;;;;;;;;;;;;
1194;;;;;;;;;;;;;
1195;;;;;;;;;;;;;
1196;;;;;;;;;;;;;
1197;;;;;;;;;;;;;
1198;;;;;;;;;;;;;
1199;;;;;;;;;;;;;
1200;;;;;;;;;;;;;
1201;;;;;;;;;;;;;
1202;;;;;;;;;;;;;
1203;;;;;;;;;;;;;
1204;;;;;;;;;;;;;
1205;;;;;;;;;;;;;
1206;;;;;;;;;;;;;
1207;;;;;;;;;;;;;
1208;;;;;;;;;;;;;
1209;;;;;;;;;;;;;
1210;;;;;;;;;;;;;
1211;;;;;;;;;;;;;
1212;;;;;;;;;;;;;
1213;;;;;;;;;;;;;
1214;;;;;;;;;;;;;
1215;;;;;;;;;;;;;
1216;;;;;;;;;;;;;
1217;;;;;;;;;;;;;
1218;;;;;;;;;;;;;
1219;;;;;;;;;;;;;
1220;;;;;;;;;;;;;
1221;;;;;;;;;;;;;
1222;;;;;;;;;;;;;
1223;;;;;;;;;;;;;
1224;;;;;;;;;;;;;
1225;;;;;;;;;;;;;
1226;;;;;;;;;;;;;
1227;;;;;;;;;;;;;
1228;;;;;;;;;;;;;
1229;;;;;;;;;;;;;
1230;;;;;;;;;;;;;
1231;;;;;;;;;;;;;
1232;;;;;;;;;;;;;
1233;;;;;;;;;;;;;
1234;;;;;;;;;;;;;
1235;;;;;;;;;;;;;
1236;;;;;;;;;;;;;
1237;;;;;;;;;;;;;
1238;;;;;;;;;;;;;
1239;;;;;;;;;;;;;
1240;;;;;;;;;;;;;
1241;;;;;;;;;;;;;
1242;;;;;;;;;;;;;
1243;;;;;;;;;;;;;
1244;;;;;;;;;;;;;
1245;;;;;;;;;;;;;
1246;;;;;;;;;;;;;
1247;;;;;;;;;;;;;
1248;;;;;;;;;;;;;
1249;;;;;;;;;;;;;
1250;;;;;;;;;;;;;
1251;;;;;;;;;;;;;
1252;;;;;;;;;;;;;
1253;;;;;;;;;;;;;
1254;;;;;;;;;;;;;
1255;;;;;;;;;;;;;
1256;;;;;;;;;;;;;
1257;;;;;;;;;;;;;
1258;;;;;;;;;;;;;
1259;;;;;;;;;;;;;
1260;;;;;;;;;;;;;
1261;;;;;;;;;;;;;
1262;;;;;;;;;;;;;
1263;;;;;;;;;;;;;
1264;;;;;;;;;;;;;
1265;;;;;;;;;;;;;
1266;;;;;;;;;;;;;
1267;;;;;;;;;;;;;
1268;;;;;;;;;;;;;
1269;;;;;;;;;;;;;
1270;;;;;;;;;;;;;
1271;;;;;;;;;;;;;
1272;;;;;;;;;;;;;
1273;;;;;;;;;;;;;
1274;;;;;;;;;;;;;
1275;;;;;;;;;;;;;
1276;;;;;;;;;;;;;
1277;;;;;;;;;;;;;
1278;;;;;;;;;;;;;
1279;;;;;;;;;;;;;
1280;;;;;;;;;;;;;
1281;;;;;;;;;;;;;
1282;;;;;;;;;;;;;
1283;;;;;;;;;;;;;
1284;;;;;;;;;;;;;
1285;;;;;;;;;;;;;
1286;;;;;;;;;;;;;
1287;;;;;;;;;;;;;
1288;;;;;;;;;;;;;
1289;;;;;;;;;;;;;
1290;;;;;;;;;;;;;
1291;;;;;;;;;;;;;
1292;;;;;;;;;;;;;
1293;;;;;;;;;;;;;
1294;;;;;;;;;;;;;
1295;;;;;;;;;;;;;
1296;;;;;;;;;;;;;
1297;;;;;;;;;;;;;
1298;;;;;;;;;;;;;
1299;;;;;;;;;;;;;
1300;;;;;;;;;;;;;
1301;;;;;;;;;;;;;
1302;;;;;;;;;;;;;
1303;;;;;;;;;;;;;
1304;;;;;;;;;;;;;
1305;;;;;;;;;;;;;
1306;;;;;;;;;;;;;
1307;;;;;;;;;;;;;
1308;;;;;;;;;;;;;
1309;;;;;;;;;;;;;
1310;;;;;;;;;;;;;
1311;;;;;;;;;;;;;
1312;;;;;;;;;;;;;
1313;;;;;;;;;;;;;
1314;;;;;;;;;;;;;
1315;;;;;;;;;;;;;
1316;;;;;;;;;;;;;
1317;;;;;;;;;;;;;
1318;;;;;;;;;;;;;
1319;;;;;;;;;;;;;
1320;;;;;;;;;;;;;
1321;;;;;;;;;;;;;
1322;;;;;;;;;;;;;
1323;;;;;;;;;;;;;
1324;;;;;;;;;;;;;
1325;;;;;;;;;;;;;
1326;;;;;;;;;;;;;
1327;;;;;;;;;;;;;
1328;;;;;;;;;;;;;
1329;;;;;;;;;;;;;
1330;;;;;;;;;;;;;
1331;;;;;;;;;;;;;
1332;;;;;;;;;;;;;
1333;;;;;;;;;;;;;
1334;;;;;;;;;;;;;
1335;;;;;;;;;;;;;
1336;;;;;;;;;;;;;
1337;;;;;;;;;;;;;
1338;;;;;;;;;;;;;
1339;;;;;;;;;;;;;
1340;;;;;;;;;;;;;
1341;;;;;;;;;;;;;
1342;;;;;;;;;;;;;
1343;;;;;;;;;;;;;
1344;;;;;;;;;;;;;
1345;;;;;;;;;;;;;
1346;;;;;;;;;;;;;
1347;;;;;;;;;;;;;
1348;;;;;;;;;;;;;
1349;;;;;;;;;;;;;
1350;;;;;;;;;;;;;
1351;;;;;;;;;;;;;
1352;;;;;;;;;;;;;
1353;;;;;;;;;;;;;
1354;;;;;;;;;;;;;
1355;;;;;;;;;;;;;
1356;;;;;;;;;;;;;
1357;;;;;;;;;;;;;
1358;;;;;;;;;;;;;
1359;;;;;;;;;;;;;
1360;;;;;;;;;;;;;
1361;;;;;;;;;;;;;
1362;;;;;;;;;;;;;
1363;;;;;;;;;;;;;
1364;;;;;;;;;;;;;
1365;;;;;;;;;;;;;
1366;;;;;;;;;;;;;
1367;;;;;;;;;;;;;
1368;;;;;;;;;;;;;
1369;;;;;;;;;;;;;
1370;;;;;;;;;;;;;
1371;;;;;;;;;;;;;
1372;;;;;;;;;;;;;
1373;;;;;;;;;;;;;
1374;;;;;;;;;;;;;
1375;;;;;;;;;;;;;
1376;;;;;;;;;;;;;
1377;;;;;;;;;;;;;
1378;;;;;;;;;;;;;
1379;;;;;;;;;;;;;
1380;;;;;;;;;;;;;
1381;;;;;;;;;;;;;
1382;;;;;;;;;;;;;
1383;;;;;;;;;;;;;
1384;;;;;;;;;;;;;
1385;;;;;;;;;;;;;
1386;;;;;;;;;;;;;
1387;;;;;;;;;;;;;
1388;;;;;;;;;;;;;
1389;;;;;;;;;;;;;
1390;;;;;;;;;;;;;
1391;;;;;;;;;;;;;
1392;;;;;;;;;;;;;
1393;;;;;;;;;;;;;
1394;;;;;;;;;;;;;
1395;;;;;;;;;;;;;
1396;;;;;;;;;;;;;
1397;;;;;;;;;;;;;
1398;;;;;;;;;;;;;
1399;;;;;;;;;;;;;
1400;;;;;;;;;;;;;
1401;;;;;;;;;;;;;
1402;;;;;;;;;;;;;
1403;;;;;;;;;;;;;
1404;;;;;;;;;;;;;
1405;;;;;;;;;;;;;
1406;;;;;;;;;;;;;
1407;;;;;;;;;;;;;
1408;;;;;;;;;;;;;
1409;;;;;;;;;;;;;
1410;;;;;;;;;;;;;
1411;;;;;;;;;;;;;
1412;;;;;;;;;;;;;
1413;;;;;;;;;;;;;
1414;;;;;;;;;;;;;
1415;;;;;;;;;;;;;
1416;;;;;;;;;;;;;
1417;;;;;;;;;;;;;
1418;;;;;;;;;;;;;
1419;;;;;;;;;;;;;
1420;;;;;;;;;;;;;
1421;;;;;;;;;;;;;
1422;;;;;;;;;;;;;
1423;;;;;;;;;;;;;
1424;;;;;;;;;;;;;
1425;;;;;;;;;;;;;
1426;;;;;;;;;;;;;
1427;;;;;;;;;;;;;
1428;;;;;;;;;;;;;
1429;;;;;;;;;;;;;
1430;;;;;;;;;;;;;
1431;;;;;;;;;;;;;
1432;;;;;;;;;;;;;
1433;;;;;;;;;;;;;
1434;;;;;;;;;;;;;
1435;;;;;;;;;;;;;
1436;;;;;;;;;;;;;
1437;;;;;;;;;;;;;
1438;;;;;;;;;;;;;
1439;;;;;;;;;;;;;
1440;;;;;;;;;;;;;
1441;;;;;;;;;;;;;
1442;;;;;;;;;;;;;
1443;;;;;;;;;;;;;
1444;;;;;;;;;;;;;
1445;;;;;;;;;;;;;
1446;;;;;;;;;;;;;
1447;;;;;;;;;;;;;
1448;;;;;;;;;;;;;
1449;;;;;;;;;;;;;
1450;;;;;;;;;;;;;
1451;;;;;;;;;;;;;
1452;;;;;;;;;;;;;
1453;;;;;;;;;;;;;
1454;;;;;;;;;;;;;
1455;;;;;;;;;;;;;
1456;;;;;;;;;;;;;
1457;;;;;;;;;;;;;
1458;;;;;;;;;;;;;
1459;;;;;;;;;;;;;
1460;;;;;;;;;;;;;
1461;;;;;;;;;;;;;
1462;;;;;;;;;;;;;
1463;;;;;;;;;;;;;
1464;;;;;;;;;;;;;
1465;;;;;;;;;;;;;
1466;;;;;;;;;;;;;
1467;;;;;;;;;;;;;
1468;;;;;;;;;;;;;
1469;;;;;;;;;;;;;
1470;;;;;;;;;;;;;
1471;;;;;;;;;;;;;
1472;;;;;;;;;;;;;
1473;;;;;;;;;;;;;
1474;;;;;;;;;;;;;
1475;;;;;;;;;;;;;
1476;;;;;;;;;;;;;
1477;;;;;;;;;;;;;
1478;;;;;;;;;;;;;
1479;;;;;;;;;;;;;
1480;;;;;;;;;;;;;
1481;;;;;;;;;;;;;
1482;;;;;;;;;;;;;
1483;;;;;;;;;;;;;
1484;;;;;;;;;;;;;
1485;;;;;;;;;;;;;
1486;;;;;;;;;;;;;
1487;;;;;;;;;;;;;
1488;;;;;;;;;;;;;
1489;;;;;;;;;;;;;
1490;;;;;;;;;;;;;
1491;;;;;;;;;;;;;
1492;;;;;;;;;;;;;
1493;;;;;;;;;;;;;
1494;;;;;;;;;;;;;
1495;;;;;;;;;;;;;
1496;;;;;;;;;;;;;
1497;;;;;;;;;;;;;
1498;;;;;;;;;;;;;
1499;;;;;;;;;;;;;
1500;;;;;;;;;;;;;
1501;;;;;;;;;;;;;
1502;;;;;;;;;;;;;
1503;;;;;;;;;;;;;
1504;;;;;;;;;;;;;
1505;;;;;;;;;;;;;
1506;;;;;;;;;;;;;
1507;;;;;;;;;;;;;
1508;;;;;;;;;;;;;
1509;;;;;;;;;;;;;
1510;;;;;;;;;;;;;
1511;;;;;;;;;;;;;
1512;;;;;;;;;;;;;
1513;;;;;;;;;;;;;
1514;;;;;;;;;;;;;
1515;;;;;;;;;;;;;
1516;;;;;;;;;;;;;
1517;;;;;;;;;;;;;
1518;;;;;;;;;;;;;
1519;;;;;;;;;;;;;
1520;;;;;;;;;;;;;
1521;;;;;;;;;;;;;
1522;;;;;;;;;;;;;
1523;;;;;;;;;;;;;
1524;;;;;;;;;;;;;
1525;;;;;;;;;;;;;
1526;;;;;;;;;;;;;
1527;;;;;;;;;;;;;
1528;;;;;;;;;;;;;
1529;;;;;;;;;;;;;
1530;;;;;;;;;;;;;
1531;;;;;;;;;;;;;
1532;;;;;;;;;;;;;
1533;;;;;;;;;;;;;
1534;;;;;;;;;;;;;
1535;;;;;;;;;;;;;
1536;;;;;;;;;;;;;
1537;;;;;;;;;;;;;
1538;;;;;;;;;;;;;
1539;;;;;;;;;;;;;
1540;;;;;;;;;;;;;
1541;;;;;;;;;;;;;
1542;;;;;;;;;;;;;
1543;;;;;;;;;;;;;
1544;;;;;;;;;;;;;
1545;;;;;;;;;;;;;
1546;;;;;;;;;;;;;
1547;;;;;;;;;;;;;
1548;;;;;;;;;;;;;
1549;;;;;;;;;;;;;
1550;;;;;;;;;;;;;
1551;;;;;;;;;;;;;
1552;;;;;;;;;;;;;
1553;;;;;;;;;;;;;
1554;;;;;;;;;;;;;
1555;;;;;;;;;;;;;
1556;;;;;;;;;;;;;
1557;;;;;;;;;;;;;
1558;;;;;;;;;;;;;
1559;;;;;;;;;;;;;
1560;;;;;;;;;;;;;
1561;;;;;;;;;;;;;
1562;;;;;;;;;;;;;
1563;;;;;;;;;;;;;
1564;;;;;;;;;;;;;
1565;;;;;;;;;;;;;
1566;;;;;;;;;;;;;
1567;;;;;;;;;;;;;
1568;;;;;;;;;;;;;
1569;;;;;;;;;;;;;
1570;;;;;;;;;;;;;
1571;;;;;;;;;;;;;
1572;;;;;;;;;;;;;
1573;;;;;;;;;;;;;
1574;;;;;;;;;;;;;
1575;;;;;;;;;;;;;
1576;;;;;;;;;;;;;
1577;;;;;;;;;;;;;
1578;;;;;;;;;;;;;
1579;;;;;;;;;;;;;
1580;;;;;;;;;;;;;
1581;;;;;;;;;;;;;
1582;;;;;;;;;;;;;
1583;;;;;;;;;;;;;
1584;;;;;;;;;;;;;
1585;;;;;;;;;;;;;
1586;;;;;;;;;;;;;
1587;;;;;;;;;;;;;
1588;;;;;;;;;;;;;
1589;;;;;;;;;;;;;
1590;;;;;;;;;;;;;
1591;;;;;;;;;;;;;
1592;;;;;;;;;;;;;
1593;;;;;;;;;;;;;
1594;;;;;;;;;;;;;
1595;;;;;;;;;;;;;
1596;;;;;;;;;;;;;
1597;;;;;;;;;;;;;
1598;;;;;;;;;;;;;
1599;;;;;;;;;;;;;
1600;;;;;;;;;;;;;
1601;;;;;;;;;;;;;
1602;;;;;;;;;;;;;
1603;;;;;;;;;;;;;
1604;;;;;;;;;;;;;
1605;;;;;;;;;;;;;
1606;;;;;;;;;;;;;
1607;;;;;;;;;;;;;
1608;;;;;;;;;;;;;
1609;;;;;;;;;;;;;
1610;;;;;;;;;;;;;
1611;;;;;;;;;;;;;
1612;;;;;;;;;;;;;
1613;;;;;;;;;;;;;
1614;;;;;;;;;;;;;
1615;;;;;;;;;;;;;
1616;;;;;;;;;;;;;
1617;;;;;;;;;;;;;
1618;;;;;;;;;;;;;
1619;;;;;;;;;;;;;
1620;;;;;;;;;;;;;
1621;;;;;;;;;;;;;
1622;;;;;;;;;;;;;
1623;;;;;;;;;;;;;
1624;;;;;;;;;;;;;
1625;;;;;;;;;;;;;
1626;;;;;;;;;;;;;
1627;;;;;;;;;;;;;
1628;;;;;;;;;;;;;
1629;;;;;;;;;;;;;
1630;;;;;;;;;;;;;
1631;;;;;;;;;;;;;
1632;;;;;;;;;;;;;
1633;;;;;;;;;;;;;
1634;;;;;;;;;;;;;
1635;;;;;;;;;;;;;
1636;;;;;;;;;;;;;
1637;;;;;;;;;;;;;
1638;;;;;;;;;;;;;
1639;;;;;;;;;;;;;
1640;;;;;;;;;;;;;
1641;;;;;;;;;;;;;
1642;;;;;;;;;;;;;
1643;;;;;;;;;;;;;
1644;;;;;;;;;;;;;
1645;;;;;;;;;;;;;
1646;;;;;;;;;;;;;
1647;;;;;;;;;;;;;
1648;;;;;;;;;;;;;
1649;;;;;;;;;;;;;
1650;;;;;;;;;;;;;
1651;;;;;;;;;;;;;
1652;;;;;;;;;;;;;
1653;;;;;;;;;;;;;
1654;;;;;;;;;;;;;
1655;;;;;;;;;;;;;
1656;;;;;;;;;;;;;
1657;;;;;;;;;;;;;
1658;;;;;;;;;;;;;
1659;;;;;;;;;;;;;
1660;;;;;;;;;;;;;
1661;;;;;;;;;;;;;
1662;;;;;;;;;;;;;
1663;;;;;;;;;;;;;
1664;;;;;;;;;;;;;
1665;;;;;;;;;;;;;
1666;;;;;;;;;;;;;
1667;;;;;;;;;;;;;
1668;;;;;;;;;;;;;
1669;;;;;;;;;;;;;
1670;;;;;;;;;;;;;
1671;;;;;;;;;;;;;
1672;;;;;;;;;;;;;
1673;;;;;;;;;;;;;
1674;;;;;;;;;;;;;
1675;;;;;;;;;;;;;
1676;;;;;;;;;;;;;
1677;;;;;;;;;;;;;
1678;;;;;;;;;;;;;
1679;;;;;;;;;;;;;
1680;;;;;;;;;;;;;
1681;;;;;;;;;;;;;
1682;;;;;;;;;;;;;
1683;;;;;;;;;;;;;
1684;;;;;;;;;;;;;
1685;;;;;;;;;;;;;
1686;;;;;;;;;;;;;
1687;;;;;;;;;;;;;
1688;;;;;;;;;;;;;
1689;;;;;;;;;;;;;
1690;;;;;;;;;;;;;
1691;;;;;;;;;;;;;
1692;;;;;;;;;;;;;
1693;;;;;;;;;;;;;
1694;;;;;;;;;;;;;
1695;;;;;;;;;;;;;
1696;;;;;;;;;;;;;
1697;;;;;;;;;;;;;
1698;;;;;;;;;;;;;
1699;;;;;;;;;;;;;
1700;;;;;;;;;;;;;
1701;;;;;;;;;;;;;
1702;;;;;;;;;;;;;
1703;;;;;;;;;;;;;
1704;;;;;;;;;;;;;
1705;;;;;;;;;;;;;
1706;;;;;;;;;;;;;
1707;;;;;;;;;;;;;
1708;;;;;;;;;;;;;
1709;;;;;;;;;;;;;
1710;;;;;;;;;;;;;
1711;;;;;;;;;;;;;
1712;;;;;;;;;;;;;
1713;;;;;;;;;;;;;
1714;;;;;;;;;;;;;
1715;;;;;;;;;;;;;
1716;;;;;;;;;;;;;
1717;;;;;;;;;;;;;
1718;;;;;;;;;;;;;
1719;;;;;;;;;;;;;
1720;;;;;;;;;;;;;
1721;;;;;;;;;;;;;
1722;;;;;;;;;;;;;
1723;;;;;;;;;;;;;
1724;;;;;;;;;;;;;
1725;;;;;;;;;;;;;
1726;;;;;;;;;;;;;
1727;;;;;;;;;;;;;
1728;;;;;;;;;;;;;
1729;;;;;;;;;;;;;
1730;;;;;;;;;;;;;
1731;;;;;;;;;;;;;
1732;;;;;;;;;;;;;
1733;;;;;;;;;;;;;
1734;;;;;;;;;;;;;
1735;;;;;;;;;;;;;
1736;;;;;;;;;;;;;
1737;;;;;;;;;;;;;
1738;;;;;;;;;;;;;
1739;;;;;;;;;;;;;
1740;;;;;;;;;;;;;
1741;;;;;;;;;;;;;
1742;;;;;;;;;;;;;
1743;;;;;;;;;;;;;
1744;;;;;;;;;;;;;
1745;;;;;;;;;;;;;
1746;;;;;;;;;;;;;
1747;;;;;;;;;;;;;
1748;;;;;;;;;;;;;
1749;;;;;;;;;;;;;
1750;;;;;;;;;;;;;
1751;;;;;;;;;;;;;
1752;;;;;;;;;;;;;
1753;;;;;;;;;;;;;
1754;;;;;;;;;;;;;
1755;;;;;;;;;;;;;
1756;;;;;;;;;;;;;
1757;;;;;;;;;;;;;
1758;;;;;;;;;;;;;
1759;;;;;;;;;;;;;
1760;;;;;;;;;;;;;
1761;;;;;;;;;;;;;
1762;;;;;;;;;;;;;
1763;;;;;;;;;;;;;
1764;;;;;;;;;;;;;
1765;;;;;;;;;;;;;
1766;;;;;;;;;;;;;
1767;;;;;;;;;;;;;
1768;;;;;;;;;;;;;
1769;;;;;;;;;;;;;
1770;;;;;;;;;;;;;
1771;;;;;;;;;;;;;
1772;;;;;;;;;;;;;
1773;;;;;;;;;;;;;
1774;;;;;;;;;;;;;
1775;;;;;;;;;;;;;
1776;;;;;;;;;;;;;
1777;;;;;;;;;;;;;
1778;;;;;;;;;;;;;
1779;;;;;;;;;;;;;
1780;;;;;;;;;;;;;
1781;;;;;;;;;;;;;
1782;;;;;;;;;;;;;
1783;;;;;;;;;;;;;
1784;;;;;;;;;;;;;
1785;;;;;;;;;;;;;
1786;;;;;;;;;;;;;
1787;;;;;;;;;;;;;
1788;;;;;;;;;;;;;
1789;;;;;;;;;;;;;
1790;;;;;;;;;;;;;
1791;;;;;;;;;;;;;
1792;;;;;;;;;;;;;
1793;;;;;;;;;;;;;
1794;;;;;;;;;;;;;
1795;;;;;;;;;;;;;
1796;;;;;;;;;;;;;
1797;;;;;;;;;;;;;
1798;;;;;;;;;;;;;
1799;;;;;;;;;;;;;
1800;;;;;;;;;;;;;
1801;;;;;;;;;;;;;
1802;;;;;;;;;;;;;
1803;;;;;;;;;;;;;
1804;;;;;;;;;;;;;
1805;;;;;;;;;;;;;
1806;;;;;;;;;;;;;
1807;;;;;;;;;;;;;
1808;;;;;;;;;;;;;
1809;;;;;;;;;;;;;
1810;;;;;;;;;;;;;
1811;;;;;;;;;;;;;
1812;;;;;;;;;;;;;
1813;;;;;;;;;;;;;
1814;;;;;;;;;;;;;
1815;;;;;;;;;;;;;
1816;;;;;;;;;;;;;
1817;;;;;;;;;;;;;
1818;;;;;;;;;;;;;
1819;;;;;;;;;;;;;
1820;;;;;;;;;;;;;
1821;;;;;;;;;;;;;
1822;;;;;;;;;;;;;
1823;;;;;;;;;;;;;
1824;;;;;;;;;;;;;
1825;;;;;;;;;;;;;
1826;;;;;;;;;;;;;
1827;;;;;;;;;;;;;
1828;;;;;;;;;;;;;
1829;;;;;;;;;;;;;
1830;;;;;;;;;;;;;
1831;;;;;;;;;;;;;
1832;;;;;;;;;;;;;
1833;;;;;;;;;;;;;
1834;;;;;;;;;;;;;
1835;;;;;;;;;;;;;
1836;;;;;;;;;;;;;
1837;;;;;;;;;;;;;
1838;;;;;;;;;;;;;
1839;;;;;;;;;;;;;
1840;;;;;;;;;;;;;
1841;;;;;;;;;;;;;
1842;;;;;;;;;;;;;
1843;;;;;;;;;;;;;
1844;;;;;;;;;;;;;
1845;;;;;;;;;;;;;
1846;;;;;;;;;;;;;
1847;;;;;;;;;;;;;
1848;;;;;;;;;;;;;
1849;;;;;;;;;;;;;
1850;;;;;;;;;;;;;
1851;;;;;;;;;;;;;
1852;;;;;;;;;;;;;
1853;;;;;;;;;;;;;
1854;;;;;;;;;;;;;
1855;;;;;;;;;;;;;
1856;;;;;;;;;;;;;
1857;;;;;;;;;;;;;
1858;;;;;;;;;;;;;
1859;;;;;;;;;;;;;
1860;;;;;;;;;;;;;
1861;;;;;;;;;;;;;
1862;;;;;;;;;;;;;
1863;;;;;;;;;;;;;
1864;;;;;;;;;;;;;
1865;;;;;;;;;;;;;
1866;;;;;;;;;;;;;
1867;;;;;;;;;;;;;
1868;;;;;;;;;;;;;
1869;;;;;;;;;;;;;
1870;;;;;;;;;;;;;
1871;;;;;;;;;;;;;
1872;;;;;;;;;;;;;
1873;;;;;;;;;;;;;
1874;;;;;;;;;;;;;
1875;;;;;;;;;;;;;
1876;;;;;;;;;;;;;
1877;;;;;;;;;;;;;
1878;;;;;;;;;;;;;
1879;;;;;;;;;;;;;
1880;;;;;;;;;;;;;
1881;;;;;;;;;;;;;
1882;;;;;;;;;;;;;
1883;;;;;;;;;;;;;
1884;;;;;;;;;;;;;
1885;;;;;;;;;;;;;
1886;;;;;;;;;;;;;
1887;;;;;;;;;;;;;
1888;;;;;;;;;;;;;
1889;;;;;;;;;;;;;
1890;;;;;;;;;;;;;
1891;;;;;;;;;;;;;
1892;;;;;;;;;;;;;
1893;;;;;;;;;;;;;
1894;;;;;;;;;;;;;
1895;;;;;;;;;;;;;
1896;;;;;;;;;;;;;
1897;;;;;;;;;;;;;
1898;;;;;;;;;;;;;
1899;;;;;;;;;;;;;
1900;;;;;;;;;;;;;
1901;;;;;;;;;;;;;
1902;;;;;;;;;;;;;
1903;;;;;;;;;;;;;
1904;;;;;;;;;;;;;
1905;;;;;;;;;;;;;
1906;;;;;;;;;;;;;
1907;;;;;;;;;;;;;
1908;;;;;;;;;;;;;
1909;;;;;;;;;;;;;
1910;;;;;;;;;;;;;
1911;;;;;;;;;;;;;
1912;;;;;;;;;;;;;
1913;;;;;;;;;;;;;
1914;;;;;;;;;;;;;
1915;;;;;;;;;;;;;
1916;;;;;;;;;;;;;
1917;;;;;;;;;;;;;
1918;;;;;;;;;;;;;
1919;;;;;;;;;;;;;
1920;;;;;;;;;;;;;
1921;;;;;;;;;;;;;
1922;;;;;;;;;;;;;
1923;;;;;;;;;;;;;
1924;;;;;;;;;;;;;
1925;;;;;;;;;;;;;
1926;;;;;;;;;;;;;
1927;;;;;;;;;;;;;
1928;;;;;;;;;;;;;
1929;;;;;;;;;;;;;
1930;;;;;;;;;;;;;
1931;;;;;;;;;;;;;
1932;;;;;;;;;;;;;
1933;;;;;;;;;;;;;
1934;;;;;;;;;;;;;
1935;;;;;;;;;;;;;
1936;;;;;;;;;;;;;
1937;;;;;;;;;;;;;
1938;;;;;;;;;;;;;
1939;;;;;;;;;;;;;
1940;;;;;;;;;;;;;
1941;;;;;;;;;;;;;
1942;;;;;;;;;;;;;
1943;;;;;;;;;;;;;
1944;;;;;;;;;;;;;
1945;;;;;;;;;;;;;
1946;;;;;;;;;;;;;
1947;;;;;;;;;;;;;
1948;;;;;;;;;;;;;
1949;;;;;;;;;;;;;
1950;;;;;;;;;;;;;
1951;;;;;;;;;;;;;
1952;;;;;;;;;;;;;
1953;;;;;;;;;;;;;
1954;;;;;;;;;;;;;
1955;;;;;;;;;;;;;
1956;;;;;;;;;;;;;
1957;;;;;;;;;;;;;
1958;;;;;;;;;;;;;
1959;;;;;;;;;;;;;
1960;;;;;;;;;;;;;
1961;;;;;;;;;;;;;
1962;;;;;;;;;;;;;
1963;;;;;;;;;;;;;
1964;;;;;;;;;;;;;
1965;;;;;;;;;;;;;
1966;;;;;;;;;;;;;
1967;;;;;;;;;;;;;
1968;;;;;;;;;;;;;
1969;;;;;;;;;;;;;
1970;;;;;;;;;;;;;
1971;;;;;;;;;;;;;
1972;;;;;;;;;;;;;
1973;;;;;;;;;;;;;
1974;;;;;;;;;;;;;
1975;;;;;;;;;;;;;
1976;;;;;;;;;;;;;
1977;;;;;;;;;;;;;
1978;;;;;;;;;;;;;
1979;;;;;;;;;;;;;
1980;;;;;;;;;;;;;
1981;;;;;;;;;;;;;
1982;;;;;;;;;;;;;
1983;;;;;;;;;;;;;
1984;;;;;;;;;;;;;
1985;;;;;;;;;;;;;
1986;;;;;;;;;;;;;
1987;;;;;;;;;;;;;
1988;;;;;;;;;;;;;
1989;;;;;;;;;;;;;
1990;;;;;;;;;;;;;
1991;;;;;;;;;;;;;
1992;;;;;;;;;;;;;
1993;;;;;;;;;;;;;
1994;;;;;;;;;;;;;
1995;;;;;;;;;;;;;
1996;;;;;;;;;;;;;
1997;;;;;;;;;;;;;
1998;;;;;;;;;;;;;
1999;;;;;;;;;;;;;
2000;;;;;;;;;;;;;
2001;;;;;;;;;;;;;
2002;;;;;;;;;;;;;
2003;;;;;;;;;;;;;
2004;;;;;;;;;;;;;
2005;;;;;;;;;;;;;
2006;;;;;;;;;;;;;
2007;;;;;;;;;;;;;
2008;;;;;;;;;;;;;
2009;;;;;;;;;;;;;
2010;;;;;;;;;;;;;
2011;;;;;;;;;;;;;
2012;;;;;;;;;;;;;
2013;;;;;;;;;;;;;
2014;;;;;;;;;;;;;
2015;;;;;;;;;;;;;
2016;;;;;;;;;;;;;
2017;;;;;;;;;;;;;
2018;;;;;;;;;;;;;
2019;;;;;;;;;;;;;
2020;;;;;;;;;;;;;
2021;;;;;;;;;;;;;
2022;;;;;;;;;;;;;
2023;;;;;;;;;;;;;
2024;;;;;;;;;;;;;
2025;;;;;;;;;;;;;
2026;;;;;;;;;;;;;
2027;;;;;;;;;;;;;
2028;;;;;;;;;;;;;
2029;;;;;;;;;;;;;
2030;;;;;;;;;;;;;
2031;;;;;;;;;;;;;
2032;;;;;;;;;;;;;
2033;;;;;;;;;;;;;
2034;;;;;;;;;;;;;
2035;;;;;;;;;;;;;
2036;;;;;;;;;;;;;
2037;;;;;;;;;;;;;
2038;;;;;;;;;;;;;
2039;;;;;;;;;;;;;
2040;;;;;;;;;;;;;
2041;;;;;;;;;;;;;
2042;;;;;;;;;;;;;
2043;;;;;;;;;;;;;
2044;;;;;;;;;;;;;
2045;;;;;;;;;;;;;
2046;;;;;;;;;;;;;
2047;;;;;;;;;;;;;
2048;;;;;;;;;;;;;
2049;;;;;;;;;;;;;
2050;;;;;;;;;;;;;
2051;;;;;;;;;;;;;
2052;;;;;;;;;;;;;
2053;;;;;;;;;;;;;
2054;;;;;;;;;;;;;
2055;;;;;;;;;;;;;
2056;;;;;;;;;;;;;
2057;;;;;;;;;;;;;
2058;;;;;;;;;;;;;
2059;;;;;;;;;;;;;
2060;;;;;;;;;;;;;
2061;;;;;;;;;;;;;
2062;;;;;;;;;;;;;
2063;;;;;;;;;;;;;
2064;;;;;;;;;;;;;
2065;;;;;;;;;;;;;
2066;;;;;;;;;;;;;
2067;;;;;;;;;;;;;
2068;;;;;;;;;;;;;
2069;;;;;;;;;;;;;
2070;;;;;;;;;;;;;
2071;;;;;;;;;;;;;
2072;;;;;;;;;;;;;
2073;;;;;;;;;;;;;
2074;;;;;;;;;;;;;
2075;;;;;;;;;;;;;
2076;;;;;;;;;;;;;
2077;;;;;;;;;;;;;
2078;;;;;;;;;;;;;
2079;;;;;;;;;;;;;
2080;;;;;;;;;;;;;
2081;;;;;;;;;;;;;
2082;;;;;;;;;;;;;
2083;;;;;;;;;;;;;
2084;;;;;;;;;;;;;
2085;;;;;;;;;;;;;
2086;;;;;;;;;;;;;
2087;;;;;;;;;;;;;
2088;;;;;;;;;;;;;
2089;;;;;;;;;;;;;
2090;;;;;;;;;;;;;
2091;;;;;;;;;;;;;
2092;;;;;;;;;;;;;
2093;;;;;;;;;;;;;
2094;;;;;;;;;;;;;
2095;;;;;;;;;;;;;
2096;;;;;;;;;;;;;
2097;;;;;;;;;;;;;
2098;;;;;;;;;;;;;
2099;;;;;;;;;;;;;
2100;;;;;;;;;;;;;
2101;;;;;;;;;;;;;
2102;;;;;;;;;;;;;
2103;;;;;;;;;;;;;
2104;;;;;;;;;;;;;
2105;;;;;;;;;;;;;
2106;;;;;;;;;;;;;
2107;;;;;;;;;;;;;
2108;;;;;;;;;;;;;
2109;;;;;;;;;;;;;
2110;;;;;;;;;;;;;
2111;;;;;;;;;;;;;
2112;;;;;;;;;;;;;
2113;;;;;;;;;;;;;
2114;;;;;;;;;;;;;
2115;;;;;;;;;;;;;
2116;;;;;;;;;;;;;
2117;;;;;;;;;;;;;
2118;;;;;;;;;;;;;
2119;;;;;;;;;;;;;
2120;;;;;;;;;;;;;
2121;;;;;;;;;;;;;
2122;;;;;;;;;;;;;
2123;;;;;;;;;;;;;
2124;;;;;;;;;;;;;
2125;;;;;;;;;;;;;
2126;;;;;;;;;;;;;
2127;;;;;;;;;;;;;
2128;;;;;;;;;;;;;
2129;;;;;;;;;;;;;
2130;;;;;;;;;;;;;
2131;;;;;;;;;;;;;
2132;;;;;;;;;;;;;
2133;;;;;;;;;;;;;
2134;;;;;;;;;;;;;
2135;;;;;;;;;;;;;
2136;;;;;;;;;;;;;
2137;;;;;;;;;;;;;
2138;;;;;;;;;;;;;
2139;;;;;;;;;;;;;
2140;;;;;;;;;;;;;
2141;;;;;;;;;;;;;
2142;;;;;;;;;;;;;
2143;;;;;;;;;;;;;
2144;;;;;;;;;;;;;
2145;;;;;;;;;;;;;
2146;;;;;;;;;;;;;
2147;;;;;;;;;;;;;
2148;;;;;;;;;;;;;
2149;;;;;;;;;;;;;
2150;;;;;;;;;;;;;
2151;;;;;;;;;;;;;
2152;;;;;;;;;;;;;
2153;;;;;;;;;;;;;
2154;;;;;;;;;;;;;
2155;;;;;;;;;;;;;
2156;;;;;;;;;;;;;
2157;;;;;;;;;;;;;
2158;;;;;;;;;;;;;
2159;;;;;;;;;;;;;
2160;;;;;;;;;;;;;
2161;;;;;;;;;;;;;
2162;;;;;;;;;;;;;
2163;;;;;;;;;;;;;
2164;;;;;;;;;;;;;
2165;;;;;;;;;;;;;
2166;;;;;;;;;;;;;
2167;;;;;;;;;;;;;
2168;;;;;;;;;;;;;
2169;;;;;;;;;;;;;
2170;;;;;;;;;;;;;
2171;;;;;;;;;;;;;
2172;;;;;;;;;;;;;
2173;;;;;;;;;;;;;
2174;;;;;;;;;;;;;
2175;;;;;;;;;;;;;
2176;;;;;;;;;;;;;
2177;;;;;;;;;;;;;
2178;;;;;;;;;;;;;
2179;;;;;;;;;;;;;
2180;;;;;;;;;;;;;
2181;;;;;;;;;;;;;
2182;;;;;;;;;;;;;
2183;;;;;;;;;;;;;
2184;;;;;;;;;;;;;
2185;;;;;;;;;;;;;
2186;;;;;;;;;;;;;
2187;;;;;;;;;;;;;
2188;;;;;;;;;;;;;
2189;;;;;;;;;;;;;
2190;;;;;;;;;;;;;
2191;;;;;;;;;;;;;
2192;;;;;;;;;;;;;
2193;;;;;;;;;;;;;
2194;;;;;;;;;;;;;
2195;;;;;;;;;;;;;
2196;;;;;;;;;;;;;
2197;;;;;;;;;;;;;
2198;;;;;;;;;;;;;
2199;;;;;;;;;;;;;
2200;;;;;;;;;;;;;
2201;;;;;;;;;;;;;
2202;;;;;;;;;;;;;
2203;;;;;;;;;;;;;
2204;;;;;;;;;;;;;
2205;;;;;;;;;;;;;
2206;;;;;;;;;;;;;
2207;;;;;;;;;;;;;
2208;;;;;;;;;;;;;
2209;;;;;;;;;;;;;
2210;;;;;;;;;;;;;
2211;;;;;;;;;;;;;
2212;;;;;;;;;;;;;
2213;;;;;;;;;;;;;
2214;;;;;;;;;;;;;
2215;;;;;;;;;;;;;
2216;;;;;;;;;;;;;
2217;;;;;;;;;;;;;
2218;;;;;;;;;;;;;
2219;;;;;;;;;;;;;
2220;;;;;;;;;;;;;
2221;;;;;;;;;;;;;
2222;;;;;;;;;;;;;
2223;;;;;;;;;;;;;
2224;;;;;;;;;;;;;
2225;;;;;;;;;;;;;
2226;;;;;;;;;;;;;
2227;;;;;;;;;;;;;
2228;;;;;;;;;;;;;
2229;;;;;;;;;;;;;
2230;;;;;;;;;;;;;
2231;;;;;;;;;;;;;
2232;;;;;;;;;;;;;
2233;;;;;;;;;;;;;
2234;;;;;;;;;;;;;
2235;;;;;;;;;;;;;
2236;;;;;;;;;;;;;
2237;;;;;;;;;;;;;
2238;;;;;;;;;;;;;
2239;;;;;;;;;;;;;
2240;;;;;;;;;;;;;
2241;;;;;;;;;;;;;
2242;;;;;;;;;;;;;
2243;;;;;;;;;;;;;
2244;;;;;;;;;;;;;
2245;;;;;;;;;;;;;
2246;;;;;;;;;;;;;
2247;;;;;;;;;;;;;
2248;;;;;;;;;;;;;
2249;;;;;;;;;;;;;
2250;;;;;;;;;;;;;
2251;;;;;;;;;;;;;
2252;;;;;;;;;;;;;
2253;;;;;;;;;;;;;
2254;;;;;;;;;;;;;
2255;;;;;;;;;;;;;
2256;;;;;;;;;;;;;
2257;;;;;;;;;;;;;
2258;;;;;;;;;;;;;
2259;;;;;;;;;;;;;
2260;;;;;;;;;;;;;
2261;;;;;;;;;;;;;
2262;;;;;;;;;;;;;
2263;;;;;;;;;;;;;
2264;;;;;;;;;;;;;
2265;;;;;;;;;;;;;
2266;;;;;;;;;;;;;
2267;;;;;;;;;;;;;
2268;;;;;;;;;;;;;
2269;;;;;;;;;;;;;
2270;;;;;;;;;;;;;
2271;;;;;;;;;;;;;
2272;;;;;;;;;;;;;
2273;;;;;;;;;;;;;
2274;;;;;;;;;;;;;
2275;;;;;;;;;;;;;
2276;;;;;;;;;;;;;
2277;;;;;;;;;;;;;
2278;;;;;;;;;;;;;
2279;;;;;;;;;;;;;
2280;;;;;;;;;;;;;
2281;;;;;;;;;;;;;
2282;;;;;;;;;;;;;
2283;;;;;;;;;;;;;
2284;;;;;;;;;;;;;
2285;;;;;;;;;;;;;
2286;;;;;;;;;;;;;
2287;;;;;;;;;;;;;
2288;;;;;;;;;;;;;
2289;;;;;;;;;;;;;
2290;;;;;;;;;;;;;
2291;;;;;;;;;;;;;
2292;;;;;;;;;;;;;
2293;;;;;;;;;;;;;
2294;;;;;;;;;;;;;
2295;;;;;;;;;;;;;
2296;;;;;;;;;;;;;
2297;;;;;;;;;;;;;
2298;;;;;;;;;;;;;
2299;;;;;;;;;;;;;
2300;;;;;;;;;;;;;
2301;;;;;;;;;;;;;
2302;;;;;;;;;;;;;
2303;;;;;;;;;;;;;
2304;;;;;;;;;;;;;
2305;;;;;;;;;;;;;
2306;;;;;;;;;;;;;
2307;;;;;;;;;;;;;
2308;;;;;;;;;;;;;
2309;;;;;;;;;;;;;
2310;;;;;;;;;;;;;
2311;;;;;;;;;;;;;
2312;;;;;;;;;;;;;
2313;;;;;;;;;;;;;
2314;;;;;;;;;;;;;
2315;;;;;;;;;;;;;
2316;;;;;;;;;;;;;
2317;;;;;;;;;;;;;
2318;;;;;;;;;;;;;
2319;;;;;;;;;;;;;
2320;;;;;;;;;;;;;
2321;;;;;;;;;;;;;
2322;;;;;;;;;;;;;
2323;;;;;;;;;;;;;
2324;;;;;;;;;;;;;
2325;;;;;;;;;;;;;
2326;;;;;;;;;;;;;
2327;;;;;;;;;;;;;
2328;;;;;;;;;;;;;
2329;;;;;;;;;;;;;
2330;;;;;;;;;;;;;
2331;;;;;;;;;;;;;
2332;;;;;;;;;;;;;
2333;;;;;;;;;;;;;
2334;;;;;;;;;;;;;
2335;;;;;;;;;;;;;
2336;;;;;;;;;;;;;
2337;;;;;;;;;;;;;
2338;;;;;;;;;;;;;
2339;;;;;;;;;;;;;
2340;;;;;;;;;;;;;
2341;;;;;;;;;;;;;
2342;;;;;;;;;;;;;
2343;;;;;;;;;;;;;
2344;;;;;;;;;;;;;
2345;;;;;;;;;;;;;
2346;;;;;;;;;;;;;
2347;;;;;;;;;;;;;
2348;;;;;;;;;;;;;
2349;;;;;;;;;;;;;
2350;;;;;;;;;;;;;
2351;;;;;;;;;;;;;
2352;;;;;;;;;;;;;
2353;;;;;;;;;;;;;
2354;;;;;;;;;;;;;
2355;;;;;;;;;;;;;
2356;;;;;;;;;;;;;
2357;;;;;;;;;;;;;
2358;;;;;;;;;;;;;
2359;;;;;;;;;;;;;
2360;;;;;;;;;;;;;
2361;;;;;;;;;;;;;
2362;;;;;;;;;;;;;
2363;;;;;;;;;;;;;
2364;;;;;;;;;;;;;
2365;;;;;;;;;;;;;
2366;;;;;;;;;;;;;
2367;;;;;;;;;;;;;
2368;;;;;;;;;;;;;
2369;;;;;;;;;;;;;
2370;;;;;;;;;;;;;
2371;;;;;;;;;;;;;
2372;;;;;;;;;;;;;
2373;;;;;;;;;;;;;
2374;;;;;;;;;;;;;
2375;;;;;;;;;;;;;
2376;;;;;;;;;;;;;
2377;;;;;;;;;;;;;
2378;;;;;;;;;;;;;
2379;;;;;;;;;;;;;
2380;;;;;;;;;;;;;
2381;;;;;;;;;;;;;
2382;;;;;;;;;;;;;
2383;;;;;;;;;;;;;
2384;;;;;;;;;;;;;
2385;;;;;;;;;;;;;
2386;;;;;;;;;;;;;
2387;;;;;;;;;;;;;
2388;;;;;;;;;;;;;
2389;;;;;;;;;;;;;
2390;;;;;;;;;;;;;
2391;;;;;;;;;;;;;
2392;;;;;;;;;;;;;
2393;;;;;;;;;;;;;
2394;;;;;;;;;;;;;
2395;;;;;;;;;;;;;
2396;;;;;;;;;;;;;
2397;;;;;;;;;;;;;
2398;;;;;;;;;;;;;
2399;;;;;;;;;;;;;
2400;;;;;;;;;;;;;
2401;;;;;;;;;;;;;
2402;;;;;;;;;;;;;
2403;;;;;;;;;;;;;
2404;;;;;;;;;;;;;
2405;;;;;;;;;;;;;
2406;;;;;;;;;;;;;
2407;;;;;;;;;;;;;
2408;;;;;;;;;;;;;
2409;;;;;;;;;;;;;
2410;;;;;;;;;;;;;
2411;;;;;;;;;;;;;
2412;;;;;;;;;;;;;
2413;;;;;;;;;;;;;
2414;;;;;;;;;;;;;
2415;;;;;;;;;;;;;
2416;;;;;;;;;;;;;
2417;;;;;;;;;;;;;
2418;;;;;;;;;;;;;
2419;;;;;;;;;;;;;
2420;;;;;;;;;;;;;
2421;;;;;;;;;;;;;
2422;;;;;;;;;;;;;
2423;;;;;;;;;;;;;
2424;;;;;;;;;;;;;
2425;;;;;;;;;;;;;
2426;;;;;;;;;;;;;
2427;;;;;;;;;;;;;
2428;;;;;;;;;;;;;
2429;;;;;;;;;;;;;
2430;;;;;;;;;;;;;
2431;;;;;;;;;;;;;
2432;;;;;;;;;;;;;
2433;;;;;;;;;;;;;
2434;;;;;;;;;;;;;
2435;;;;;;;;;;;;;
2436;;;;;;;;;;;;;
2437;;;;;;;;;;;;;
2438;;;;;;;;;;;;;
2439;;;;;;;;;;;;;
2440;;;;;;;;;;;;;
2441;;;;;;;;;;;;;
2442;;;;;;;;;;;;;
2443;;;;;;;;;;;;;
2444;;;;;;;;;;;;;
2445;;;;;;;;;;;;;
2446;;;;;;;;;;;;;
2447;;;;;;;;;;;;;
2448;;;;;;;;;;;;;
2449;;;;;;;;;;;;;
2450;;;;;;;;;;;;;
2451;;;;;;;;;;;;;
2452;;;;;;;;;;;;;
2453;;;;;;;;;;;;;
2454;;;;;;;;;;;;;
2455;;;;;;;;;;;;;
2456;;;;;;;;;;;;;
2457;;;;;;;;;;;;;
2458;;;;;;;;;;;;;
2459;;;;;;;;;;;;;
2460;;;;;;;;;;;;;
2461;;;;;;;;;;;;;
2462;;;;;;;;;;;;;
2463;;;;;;;;;;;;;
2464;;;;;;;;;;;;;
2465;;;;;;;;;;;;;
2466;;;;;;;;;;;;;
2467;;;;;;;;;;;;;
2468;;;;;;;;;;;;;
2469;;;;;;;;;;;;;
2470;;;;;;;;;;;;;
2471;;;;;;;;;;;;;
2472;;;;;;;;;;;;;
2473;;;;;;;;;;;;;
2474;;;;;;;;;;;;;
2475;;;;;;;;;;;;;
2476;;;;;;;;;;;;;
2477;;;;;;;;;;;;;
2478;;;;;;;;;;;;;
2479;;;;;;;;;;;;;
2480;;;;;;;;;;;;;
2481;;;;;;;;;;;;;
2482;;;;;;;;;;;;;
2483;;;;;;;;;;;;;
2484;;;;;;;;;;;;;
2485;;;;;;;;;;;;;
2486;;;;;;;;;;;;;
2487;;;;;;;;;;;;;
2488;;;;;;;;;;;;;
2489;;;;;;;;;;;;;
2490;;;;;;;;;;;;;
2491;;;;;;;;;;;;;
2492;;;;;;;;;;;;;
2493;;;;;;;;;;;;;
2494;;;;;;;;;;;;;
2495;;;;;;;;;;;;;
