
Index;Column 2 (V);Column 3 (V);Column 4 (V);Column 5 (V);Column 6 (V/s);Column 7 (V);Time (s);Potential applied (V);WE(1).Current (A);WE(1).Potential (V);Scan;Column 13 (RPM);ω (rad/s)
1;0;0.01;-1;-0.01;0.01;-0.00244;10699.1917159871;-0.0146484375;8.45947265625E-07;-0.01444091796875;3;1200;125.663706143592
2;;;;;;;10699.4358569865;-0.01708984375;7.4798583984375E-07;-0.0167816162109375;3;;
3;;;;;;;10699.6799979859;-0.01953125;6.4788818359375E-07;-0.0192413330078125;3;;
4;;;;;;;10699.9241389853;-0.02197265625;5.694580078125E-07;-0.0217041015625;3;;
5;;;;;;;10700.1682799847;-0.0244140625;4.9407958984375E-07;-0.0242034912109375;3;;
6;;;;;;;10700.4124209841;-0.02685546875;4.1839599609375E-07;-0.0265716552734375;3;;
7;;;;;;;10700.6565619834;-0.029296875;3.5003662109375E-07;-0.028997802734375;3;;
8;;;;;;;10700.9007029828;-0.03173828125;3.009033203125E-07;-0.0313140869140625;3;;
9;;;;;;;10701.1448439822;-0.0341796875;2.197265625E-07;-0.0338897705078125;3;;
10;;;;;;;10701.3889849816;-0.03662109375;1.4984130859375E-07;-0.03631591796875;3;;
11;;;;;;;10701.633125981;-0.0390625;7.232666015625E-08;-0.0387603759765625;3;;
12;;;;;;;10701.8772669804;-0.04150390625;-6.103515625E-09;-0.0411102294921875;3;;
13;;;;;;;10702.1214079797;-0.0439453125;-5.31005859375E-08;-0.0435516357421875;3;;
14;;;;;;;10702.3655489791;-0.04638671875;-1.123046875E-07;-0.046038818359375;3;;
15;;;;;;;10702.6096899785;-0.048828125;-1.7242431640625E-07;-0.0485107421875;3;;
16;;;;;;;10702.8538309779;-0.05126953125;-2.447509765625E-07;-0.051025390625;3;;
17;;;;;;;10703.0979719773;-0.0537109375;-3.265380859375E-07;-0.053314208984375;3;;
18;;;;;;;10703.3421129767;-0.05615234375;-3.619384765625E-07;-0.055938720703125;3;;
19;;;;;;;10703.586253976;-0.05859375;-4.7149658203125E-07;-0.058258056640625;3;;
20;;;;;;;10703.8303949754;-0.06103515625;-5.52978515625E-07;-0.060760498046875;3;;
21;;;;;;;10704.0745359748;-0.0634765625;-6.2164306640625E-07;-0.06304931640625;3;;
22;;;;;;;10704.3186769742;-0.06591796875;-6.903076171875E-07;-0.065460205078125;3;;
23;;;;;;;10704.5628179736;-0.068359375;-7.7880859375E-07;-0.068023681640625;3;;
24;;;;;;;10704.806958973;-0.07080078125;-8.7066650390625E-07;-0.0703125;3;;
25;;;;;;;10705.0510999723;-0.0732421875;-9.4268798828125E-07;-0.072845458984375;3;;
26;;;;;;;10705.2952409717;-0.07568359375;-1.05438232421875E-06;-0.075347900390625;3;;
27;;;;;;;10705.5393819711;-0.078125;-1.1358642578125E-06;-0.077667236328125;3;;
28;;;;;;;10705.7835229705;-0.08056640625;-1.24267578125E-06;-0.0802001953125;3;;
29;;;;;;;10706.0276639699;-0.0830078125;-1.3604736328125E-06;-0.08245849609375;3;;
30;;;;;;;10706.2718049693;-0.08544921875;-1.48773193359375E-06;-0.084991455078125;3;;
31;;;;;;;10706.5159459686;-0.087890625;-1.60247802734375E-06;-0.087371826171875;3;;
32;;;;;;;10706.760086968;-0.09033203125;-1.724853515625E-06;-0.089874267578125;3;;
33;;;;;;;10707.0042279674;-0.0927734375;-1.8743896484375E-06;-0.092315673828125;3;;
34;;;;;;;10707.2483689668;-0.09521484375;-2.0037841796875E-06;-0.094757080078125;3;;
35;;;;;;;10707.4925099662;-0.09765625;-2.15362548828125E-06;-0.097198486328125;3;;
36;;;;;;;10707.7366509656;-0.10009765625;-2.32177734375E-06;-0.09954833984375;3;;
37;;;;;;;10707.9807919649;-0.1025390625;-2.5054931640625E-06;-0.10186767578125;3;;
38;;;;;;;10708.2249329643;-0.10498046875;-2.68524169921875E-06;-0.1043701171875;3;;
39;;;;;;;10708.4690739637;-0.107421875;-2.8948974609375E-06;-0.106719970703125;3;;
40;;;;;;;10708.7132149631;-0.10986328125;-3.1146240234375E-06;-0.109283447265625;3;;
41;;;;;;;10708.9573559625;-0.1123046875;-3.3160400390625E-06;-0.111907958984375;3;;
42;;;;;;;10709.2014969619;-0.11474609375;-3.55682373046875E-06;-0.114349365234375;3;;
43;;;;;;;10709.4456379612;-0.1171875;-3.8177490234375E-06;-0.116851806640625;3;;
44;;;;;;;10709.6897789606;-0.11962890625;-4.083251953125E-06;-0.119232177734375;3;;
45;;;;;;;10709.93391996;-0.1220703125;-4.3792724609375E-06;-0.121673583984375;3;;
46;;;;;;;10710.1780609594;-0.12451171875;-4.6844482421875E-06;-0.124114990234375;3;;
47;;;;;;;10710.4222019588;-0.126953125;-5.0323486328125E-06;-0.126556396484375;3;;
48;;;;;;;10710.6663429582;-0.12939453125;-5.340576171875E-06;-0.128997802734375;3;;
49;;;;;;;10710.9104839576;-0.1318359375;-5.7342529296875E-06;-0.131378173828125;3;;
50;;;;;;;10711.1546249569;-0.13427734375;-6.134033203125E-06;-0.1337890625;3;;
51;;;;;;;10711.3987659563;-0.13671875;-6.5948486328125E-06;-0.136260986328125;3;;
52;;;;;;;10711.6429069557;-0.13916015625;-7.0343017578125E-06;-0.13861083984375;3;;
53;;;;;;;10711.8870479551;-0.1416015625;-7.5042724609375E-06;-0.141143798828125;3;;
54;;;;;;;10712.1311889545;-0.14404296875;-8.013916015625E-06;-0.143524169921875;3;;
55;;;;;;;10712.3753299539;-0.146484375;-8.5784912109375E-06;-0.14599609375;3;;
56;;;;;;;10712.6194709532;-0.14892578125;-9.1339111328125E-06;-0.1484375;3;;
57;;;;;;;10712.8636119526;-0.1513671875;-9.7564697265625E-06;-0.150787353515625;3;;
58;;;;;;;10713.107752952;-0.15380859375;-1.04034423828125E-05;-0.15325927734375;3;;
59;;;;;;;10713.3518939514;-0.15625;-1.11419677734375E-05;-0.15570068359375;3;;
60;;;;;;;10713.5960349508;-0.15869140625;-1.18560791015625E-05;-0.15814208984375;3;;
61;;;;;;;10713.8401759502;-0.1611328125;-1.2646484375E-05;-0.160552978515625;3;;
62;;;;;;;10714.0843169495;-0.16357421875;-1.35009765625E-05;-0.162994384765625;3;;
63;;;;;;;10714.3284579489;-0.166015625;-1.43768310546875E-05;-0.16546630859375;3;;
64;;;;;;;10714.5725989483;-0.16845703125;-1.53106689453125E-05;-0.1678466796875;3;;
65;;;;;;;10714.8167399477;-0.1708984375;-1.6351318359375E-05;-0.1702880859375;3;;
66;;;;;;;10715.0608809471;-0.17333984375;-1.73980712890625E-05;-0.1727294921875;3;;
67;;;;;;;10715.3050219465;-0.17578125;-1.8548583984375E-05;-0.175140380859375;3;;
68;;;;;;;10715.5491629458;-0.17822265625;-1.97662353515625E-05;-0.177581787109375;3;;
69;;;;;;;10715.7933039452;-0.1806640625;-2.10601806640625E-05;-0.179931640625;3;;
70;;;;;;;10716.0374449446;-0.18310546875;-2.24578857421875E-05;-0.182342529296875;3;;
71;;;;;;;10716.281585944;-0.185546875;-2.39105224609375E-05;-0.184722900390625;3;;
72;;;;;;;10716.5257269434;-0.18798828125;-2.545166015625E-05;-0.18719482421875;3;;
73;;;;;;;10716.7698679428;-0.1904296875;-2.70660400390625E-05;-0.1895751953125;3;;
74;;;;;;;10717.0140089421;-0.19287109375;-2.8765869140625E-05;-0.1920166015625;3;;
75;;;;;;;10717.2581499415;-0.1953125;-3.06243896484375E-05;-0.194488525390625;3;;
76;;;;;;;10717.5022909409;-0.19775390625;-3.25714111328125E-05;-0.197265625;3;;
77;;;;;;;10717.7464319403;-0.2001953125;-3.468017578125E-05;-0.199676513671875;3;;
78;;;;;;;10717.9905729397;-0.20263671875;-3.69384765625E-05;-0.202056884765625;3;;
79;;;;;;;10718.2347139391;-0.205078125;-3.9337158203125E-05;-0.20452880859375;3;;
80;;;;;;;10718.4788549384;-0.20751953125;-4.1845703125E-05;-0.206939697265625;3;;
81;;;;;;;10718.7229959378;-0.2099609375;-4.45037841796875E-05;-0.209442138671875;3;;
82;;;;;;;10718.9671369372;-0.21240234375;-4.72747802734375E-05;-0.2117919921875;3;;
83;;;;;;;10719.2112779366;-0.21484375;-5.0201416015625E-05;-0.21417236328125;3;;
84;;;;;;;10719.455418936;-0.21728515625;-5.3375244140625E-05;-0.2166748046875;3;;
85;;;;;;;10719.6995599354;-0.2197265625;-5.6854248046875E-05;-0.2191162109375;3;;
86;;;;;;;10719.9437009347;-0.22216796875;-6.0516357421875E-05;-0.2215576171875;3;;
87;;;;;;;10720.1878419341;-0.224609375;-6.4422607421875E-05;-0.22393798828125;3;;
88;;;;;;;10720.4319829335;-0.22705078125;-6.854248046875E-05;-0.226409912109375;3;;
89;;;;;;;10720.6761239329;-0.2294921875;-7.28759765625E-05;-0.2288818359375;3;;
90;;;;;;;10720.9202649323;-0.23193359375;-7.7392578125E-05;-0.2313232421875;3;;
91;;;;;;;10721.1644059317;-0.234375;-8.2183837890625E-05;-0.2337646484375;3;;
92;;;;;;;10721.408546931;-0.23681640625;-8.734130859375E-05;-0.23614501953125;3;;
93;;;;;;;10721.6526879304;-0.2392578125;-9.2803955078125E-05;-0.23858642578125;3;;
94;;;;;;;10721.8968289298;-0.24169921875;-9.869384765625E-05;-0.24102783203125;3;;
95;;;;;;;10722.1409699292;-0.244140625;-0.00010504150390625;-0.243408203125;3;;
96;;;;;;;10722.3851109286;-0.24658203125;-0.000111724853515625;-0.24591064453125;3;;
97;;;;;;;10722.629251928;-0.2490234375;-0.00011865234375;-0.24835205078125;3;;
98;;;;;;;10722.8733929273;-0.25146484375;-0.00012591552734375;-0.250732421875;3;;
99;;;;;;;10723.1175339267;-0.25390625;-0.000133514404296875;-0.253204345703125;3;;
100;;;;;;;10723.3616749261;-0.25634765625;-0.00014154052734375;-0.255615234375;3;;
101;;;;;;;10723.6058159255;-0.2587890625;-0.000150054931640625;-0.258026123046875;3;;
102;;;;;;;10723.8499569249;-0.26123046875;-0.0001591796875;-0.260467529296875;3;;
103;;;;;;;10724.0940979243;-0.263671875;-0.00016888427734375;-0.262908935546875;3;;
104;;;;;;;10724.3382389236;-0.26611328125;-0.0001790771484375;-0.2652587890625;3;;
105;;;;;;;10724.582379923;-0.2685546875;-0.000189727783203125;-0.267669677734375;3;;
106;;;;;;;10724.8265209224;-0.27099609375;-0.000200775146484375;-0.270172119140625;3;;
107;;;;;;;10725.0706619218;-0.2734375;-0.000212158203125;-0.272552490234375;3;;
108;;;;;;;10725.3148029212;-0.27587890625;-0.00022381591796875;-0.27496337890625;3;;
109;;;;;;;10725.5589439206;-0.2783203125;-0.000236114501953125;-0.27734375;3;;
110;;;;;;;10725.8030849199;-0.28076171875;-0.000249053955078125;-0.279815673828125;3;;
111;;;;;;;10726.0472259193;-0.283203125;-0.0002626953125;-0.282257080078125;3;;
112;;;;;;;10726.2913669187;-0.28564453125;-0.0002769775390625;-0.28460693359375;3;;
113;;;;;;;10726.5355079181;-0.2880859375;-0.000291717529296875;-0.2869873046875;3;;
114;;;;;;;10726.7796489175;-0.29052734375;-0.00030682373046875;-0.2894287109375;3;;
115;;;;;;;10727.0237899169;-0.29296875;-0.000322265625;-0.29229736328125;3;;
116;;;;;;;10727.2679309163;-0.29541015625;-0.00033782958984375;-0.294708251953125;3;;
117;;;;;;;10727.5120719156;-0.2978515625;-0.000353790283203125;-0.297149658203125;3;;
118;;;;;;;10727.756212915;-0.30029296875;-0.00037017822265625;-0.299560546875;3;;
119;;;;;;;10728.0003539144;-0.302734375;-0.00038720703125;-0.302001953125;3;;
120;;;;;;;10728.2444949138;-0.30517578125;-0.000404815673828125;-0.304443359375;3;;
121;;;;;;;10728.4886359132;-0.3076171875;-0.00042279052734375;-0.306884765625;3;;
122;;;;;;;10728.7327769126;-0.31005859375;-0.000441070556640625;-0.309295654296875;3;;
123;;;;;;;10728.9769179119;-0.3125;-0.0004593505859375;-0.311767578125;3;;
124;;;;;;;10729.2210589113;-0.31494140625;-0.0004776611328125;-0.314178466796875;3;;
125;;;;;;;10729.4651999107;-0.3173828125;-0.000495697021484375;-0.316680908203125;3;;
126;;;;;;;10729.7093409101;-0.31982421875;-0.00051361083984375;-0.319122314453125;3;;
127;;;;;;;10729.9534819095;-0.322265625;-0.00053192138671875;-0.321533203125;3;;
128;;;;;;;10730.1976229089;-0.32470703125;-0.00055084228515625;-0.323944091796875;3;;
129;;;;;;;10730.4417639082;-0.3271484375;-0.00056976318359375;-0.326416015625;3;;
130;;;;;;;10730.6859049076;-0.32958984375;-0.0005889892578125;-0.328826904296875;3;;
131;;;;;;;10730.930045907;-0.33203125;-0.00060791015625;-0.33123779296875;3;;
132;;;;;;;10731.1741869064;-0.33447265625;-0.000626220703125;-0.33367919921875;3;;
133;;;;;;;10731.4183279058;-0.3369140625;-0.0006439208984375;-0.336029052734375;3;;
134;;;;;;;10731.6624689052;-0.33935546875;-0.00066131591796875;-0.33856201171875;3;;
135;;;;;;;10731.9066099045;-0.341796875;-0.00067840576171875;-0.34100341796875;3;;
136;;;;;;;10732.1507509039;-0.34423828125;-0.00069549560546875;-0.34344482421875;3;;
137;;;;;;;10732.3948919033;-0.3466796875;-0.00071258544921875;-0.345916748046875;3;;
138;;;;;;;10732.6390329027;-0.34912109375;-0.00072967529296875;-0.34832763671875;3;;
139;;;;;;;10732.8831739021;-0.3515625;-0.0007464599609375;-0.350738525390625;3;;
140;;;;;;;10733.1273149015;-0.35400390625;-0.00076202392578125;-0.353179931640625;3;;
141;;;;;;;10733.3714559008;-0.3564453125;-0.00077667236328125;-0.355560302734375;3;;
142;;;;;;;10733.6155969002;-0.35888671875;-0.000791015625;-0.3580322265625;3;;
143;;;;;;;10733.8597378996;-0.361328125;-0.00080413818359375;-0.360443115234375;3;;
144;;;;;;;10734.103878899;-0.36376953125;-0.00081695556640625;-0.362884521484375;3;;
145;;;;;;;10734.3480198984;-0.3662109375;-0.0008294677734375;-0.36529541015625;3;;
146;;;;;;;10734.5921608978;-0.36865234375;-0.0008416748046875;-0.3677978515625;3;;
147;;;;;;;10734.8363018971;-0.37109375;-0.000853271484375;-0.37017822265625;3;;
148;;;;;;;10735.0804428965;-0.37353515625;-0.00086395263671875;-0.372711181640625;3;;
149;;;;;;;10735.3245838959;-0.3759765625;-0.0008740234375;-0.37506103515625;3;;
150;;;;;;;10735.5687248953;-0.37841796875;-0.0008831787109375;-0.37750244140625;3;;
151;;;;;;;10735.8128658947;-0.380859375;-0.00089141845703125;-0.37994384765625;3;;
152;;;;;;;10736.0570068941;-0.38330078125;-0.0008984375;-0.382354736328125;3;;
153;;;;;;;10736.3011478934;-0.3857421875;-0.00090545654296875;-0.38482666015625;3;;
154;;;;;;;10736.5452888928;-0.38818359375;-0.00091217041015625;-0.387298583984375;3;;
155;;;;;;;10736.7894298922;-0.390625;-0.00091888427734375;-0.389739990234375;3;;
156;;;;;;;10737.0335708916;-0.39306640625;-0.00092529296875;-0.392120361328125;3;;
157;;;;;;;10737.277711891;-0.3955078125;-0.00093109130859375;-0.394561767578125;3;;
158;;;;;;;10737.5218528904;-0.39794921875;-0.00093597412109375;-0.3970947265625;3;;
159;;;;;;;10737.7659938897;-0.400390625;-0.0009405517578125;-0.3994140625;3;;
160;;;;;;;10738.0101348891;-0.40283203125;-0.00094451904296875;-0.40191650390625;3;;
161;;;;;;;10738.2542758885;-0.4052734375;-0.00094818115234375;-0.404266357421875;3;;
162;;;;;;;10738.4984168879;-0.40771484375;-0.0009521484375;-0.40673828125;3;;
163;;;;;;;10738.7425578873;-0.41015625;-0.000955810546875;-0.409210205078125;3;;
164;;;;;;;10738.9866988867;-0.41259765625;-0.0009600830078125;-0.41162109375;3;;
165;;;;;;;10739.230839886;-0.4150390625;-0.00096435546875;-0.414031982421875;3;;
166;;;;;;;10739.4749808854;-0.41748046875;-0.000968017578125;-0.416534423828125;3;;
167;;;;;;;10739.7191218848;-0.419921875;-0.00097198486328125;-0.418975830078125;3;;
168;;;;;;;10739.9632628842;-0.42236328125;-0.00097564697265625;-0.421417236328125;3;;
169;;;;;;;10740.2074038836;-0.4248046875;-0.0009783935546875;-0.423828125;3;;
170;;;;;;;10740.451544883;-0.42724609375;-0.00098114013671875;-0.42626953125;3;;
171;;;;;;;10740.6956858824;-0.4296875;-0.00098388671875;-0.428741455078125;3;;
172;;;;;;;10740.9398268817;-0.43212890625;-0.0009869384765625;-0.43109130859375;3;;
173;;;;;;;10741.1839678811;-0.4345703125;-0.00099029541015625;-0.433563232421875;3;;
174;;;;;;;10741.4281088805;-0.43701171875;-0.00099395751953125;-0.436004638671875;3;;
175;;;;;;;10741.6722498799;-0.439453125;-0.00099761962890625;-0.4384765625;3;;
176;;;;;;;10741.9163908793;-0.44189453125;-0.00100067138671875;-0.440887451171875;3;;
177;;;;;;;10742.1605318787;-0.4443359375;-0.0010028076171875;-0.443328857421875;3;;
178;;;;;;;10742.404672878;-0.44677734375;-0.00100555419921875;-0.44580078125;3;;
179;;;;;;;10742.6488138774;-0.44921875;-0.00100738525390625;-0.448211669921875;3;;
180;;;;;;;10742.8929548768;-0.45166015625;-0.00101043701171875;-0.45068359375;3;;
181;;;;;;;10743.1370958762;-0.4541015625;-0.00101318359375;-0.45306396484375;3;;
182;;;;;;;10743.3812368756;-0.45654296875;-0.0010162353515625;-0.45550537109375;3;;
183;;;;;;;10743.625377875;-0.458984375;-0.001019287109375;-0.457916259765625;3;;
184;;;;;;;10743.8695188743;-0.46142578125;-0.0010223388671875;-0.460357666015625;3;;
185;;;;;;;10744.1136598737;-0.4638671875;-0.00102447509765625;-0.462860107421875;3;;
186;;;;;;;10744.3578008731;-0.46630859375;-0.00102630615234375;-0.46527099609375;3;;
187;;;;;;;10744.6019418725;-0.46875;-0.001029052734375;-0.467681884765625;3;;
188;;;;;;;10744.8460828719;-0.47119140625;-0.0010308837890625;-0.470123291015625;3;;
189;;;;;;;10745.0902238713;-0.4736328125;-0.00103240966796875;-0.47259521484375;3;;
190;;;;;;;10745.3343648706;-0.47607421875;-0.00103485107421875;-0.475006103515625;3;;
191;;;;;;;10745.57850587;-0.478515625;-0.00103729248046875;-0.4774169921875;3;;
192;;;;;;;10745.8226468694;-0.48095703125;-0.00103973388671875;-0.479827880859375;3;;
193;;;;;;;10746.0667878688;-0.4833984375;-0.0010418701171875;-0.4822998046875;3;;
194;;;;;;;10746.3109288682;-0.48583984375;-0.001043701171875;-0.484771728515625;3;;
195;;;;;;;10746.5550698676;-0.48828125;-0.00104461669921875;-0.487213134765625;3;;
196;;;;;;;10746.7992108669;-0.49072265625;-0.0010455322265625;-0.48956298828125;3;;
197;;;;;;;10747.0433518663;-0.4931640625;-0.00104736328125;-0.4920654296875;3;;
198;;;;;;;10747.2874928657;-0.49560546875;-0.0010479736328125;-0.4945068359375;3;;
199;;;;;;;10747.5316338651;-0.498046875;-0.00105072021484375;-0.496978759765625;3;;
200;;;;;;;10747.7757748645;-0.50048828125;-0.00105316162109375;-0.499359130859375;3;;
201;;;;;;;10748.0199158639;-0.5029296875;-0.0010546875;-0.5018310546875;3;;
202;;;;;;;10748.2640568632;-0.50537109375;-0.00105621337890625;-0.504302978515625;3;;
203;;;;;;;10748.5081978626;-0.5078125;-0.00105743408203125;-0.5067138671875;3;;
204;;;;;;;10748.752338862;-0.51025390625;-0.00105865478515625;-0.50909423828125;3;;
205;;;;;;;10748.9964798614;-0.5126953125;-0.00105926513671875;-0.51153564453125;3;;
206;;;;;;;10749.2406208608;-0.51513671875;-0.0010601806640625;-0.51397705078125;3;;
207;;;;;;;10749.4847618602;-0.517578125;-0.0010626220703125;-0.516510009765625;3;;
208;;;;;;;10749.7289028595;-0.52001953125;-0.001064453125;-0.518890380859375;3;;
209;;;;;;;10749.9730438589;-0.5224609375;-0.001065673828125;-0.5213623046875;3;;
210;;;;;;;10750.2171848583;-0.52490234375;-0.00106689453125;-0.52374267578125;3;;
211;;;;;;;10750.4613258577;-0.52734375;-0.0010687255859375;-0.52618408203125;3;;
212;;;;;;;10750.7054668571;-0.52978515625;-0.00106903076171875;-0.528594970703125;3;;
213;;;;;;;10750.9496078565;-0.5322265625;-0.0010699462890625;-0.531036376953125;3;;
214;;;;;;;10751.1937488558;-0.53466796875;-0.00107086181640625;-0.533477783203125;3;;
215;;;;;;;10751.4378898552;-0.537109375;-0.00107177734375;-0.535919189453125;3;;
216;;;;;;;10751.6820308546;-0.53955078125;-0.0010723876953125;-0.538360595703125;3;;
217;;;;;;;10751.926171854;-0.5419921875;-0.00107391357421875;-0.54083251953125;3;;
218;;;;;;;10752.1703128534;-0.54443359375;-0.001075439453125;-0.543243408203125;3;;
219;;;;;;;10752.4144538528;-0.546875;-0.00107635498046875;-0.545684814453125;3;;
220;;;;;;;10752.6585948521;-0.54931640625;-0.0010772705078125;-0.54815673828125;3;;
221;;;;;;;10752.9027358515;-0.5517578125;-0.00107940673828125;-0.55059814453125;3;;
222;;;;;;;10753.1468768509;-0.55419921875;-0.00107879638671875;-0.552978515625;3;;
223;;;;;;;10753.3910178503;-0.556640625;-0.0010784912109375;-0.555450439453125;3;;
224;;;;;;;10753.6351588497;-0.55908203125;-0.0010784912109375;-0.557891845703125;3;;
225;;;;;;;10753.8792998491;-0.5615234375;-0.0010797119140625;-0.560333251953125;3;;
226;;;;;;;10754.1234408484;-0.56396484375;-0.00108123779296875;-0.562744140625;3;;
227;;;;;;;10754.3675818478;-0.56640625;-0.001082763671875;-0.565185546875;3;;
228;;;;;;;10754.6117228472;-0.56884765625;-0.00108367919921875;-0.567596435546875;3;;
229;;;;;;;10754.8558638466;-0.5712890625;-0.00108428955078125;-0.570037841796875;3;;
230;;;;;;;10755.100004846;-0.57373046875;-0.00108367919921875;-0.572509765625;3;;
231;;;;;;;10755.3441458454;-0.576171875;-0.001083984375;-0.574951171875;3;;
232;;;;;;;10755.5882868448;-0.57861328125;-0.001083984375;-0.577392578125;3;;
233;;;;;;;10755.8324278441;-0.5810546875;-0.00108428955078125;-0.579864501953125;3;;
234;;;;;;;10756.0765688435;-0.58349609375;-0.00108551025390625;-0.58221435546875;3;;
235;;;;;;;10756.3207098429;-0.5859375;-0.00108734130859375;-0.584686279296875;3;;
236;;;;;;;10756.5648508423;-0.58837890625;-0.00108795166015625;-0.58721923828125;3;;
237;;;;;;;10756.8089918417;-0.5908203125;-0.00108856201171875;-0.58953857421875;3;;
238;;;;;;;10757.0531328411;-0.59326171875;-0.0010882568359375;-0.592010498046875;3;;
239;;;;;;;10757.2972738404;-0.595703125;-0.001087646484375;-0.594451904296875;3;;
240;;;;;;;10757.5414148398;-0.59814453125;-0.0010882568359375;-0.59686279296875;3;;
241;;;;;;;10757.7855558392;-0.6005859375;-0.0010882568359375;-0.599334716796875;3;;
242;;;;;;;10758.0296968386;-0.60302734375;-0.0010894775390625;-0.60174560546875;3;;
243;;;;;;;10758.273837838;-0.60546875;-0.00108978271484375;-0.604156494140625;3;;
244;;;;;;;10758.5179788374;-0.60791015625;-0.00109039306640625;-0.606597900390625;3;;
245;;;;;;;10758.7621198367;-0.6103515625;-0.00109130859375;-0.609039306640625;3;;
246;;;;;;;10759.0062608361;-0.61279296875;-0.00109130859375;-0.611480712890625;3;;
247;;;;;;;10759.2504018355;-0.615234375;-0.00109222412109375;-0.61395263671875;3;;
248;;;;;;;10759.4945428349;-0.61767578125;-0.00109130859375;-0.616363525390625;3;;
249;;;;;;;10759.7386838343;-0.6201171875;-0.00109039306640625;-0.61883544921875;3;;
250;;;;;;;10759.9828248337;-0.62255859375;-0.0010906982421875;-0.621246337890625;3;;
251;;;;;;;10760.226965833;-0.625;-0.00109161376953125;-0.623687744140625;3;;
252;;;;;;;10760.4711068324;-0.62744140625;-0.00109161376953125;-0.62615966796875;3;;
253;;;;;;;10760.7152478318;-0.6298828125;-0.001092529296875;-0.628570556640625;3;;
254;;;;;;;10760.9593888312;-0.63232421875;-0.0010919189453125;-0.631011962890625;3;;
255;;;;;;;10761.2035298306;-0.634765625;-0.00109222412109375;-0.633453369140625;3;;
256;;;;;;;10761.44767083;-0.63720703125;-0.00109161376953125;-0.635894775390625;3;;
257;;;;;;;10761.6918118293;-0.6396484375;-0.00108978271484375;-0.63836669921875;3;;
258;;;;;;;10761.9359528287;-0.64208984375;-0.00108978271484375;-0.6407470703125;3;;
259;;;;;;;10762.1800938281;-0.64453125;-0.00108917236328125;-0.64324951171875;3;;
260;;;;;;;10762.4242348275;-0.64697265625;-0.00108856201171875;-0.64569091796875;3;;
261;;;;;;;10762.6683758269;-0.6494140625;-0.00108917236328125;-0.6480712890625;3;;
262;;;;;;;10762.9125168263;-0.65185546875;-0.00108917236328125;-0.650543212890625;3;;
263;;;;;;;10763.1566578256;-0.654296875;-0.0010906982421875;-0.652984619140625;3;;
264;;;;;;;10763.400798825;-0.65673828125;-0.0010894775390625;-0.655426025390625;3;;
265;;;;;;;10763.6449398244;-0.6591796875;-0.0010888671875;-0.65789794921875;3;;
266;;;;;;;10763.8890808238;-0.66162109375;-0.00108795166015625;-0.66033935546875;3;;
267;;;;;;;10764.1332218232;-0.6640625;-0.0010870361328125;-0.662689208984375;3;;
268;;;;;;;10764.3773628226;-0.66650390625;-0.00108642578125;-0.6651611328125;3;;
269;;;;;;;10764.6215038219;-0.6689453125;-0.001085205078125;-0.6676025390625;3;;
270;;;;;;;10764.8656448213;-0.67138671875;-0.00108673095703125;-0.670013427734375;3;;
271;;;;;;;10765.1097858207;-0.673828125;-0.00108673095703125;-0.6724853515625;3;;
272;;;;;;;10765.3539268201;-0.67626953125;-0.00108551025390625;-0.674957275390625;3;;
273;;;;;;;10765.5980678195;-0.6787109375;-0.00108551025390625;-0.6773681640625;3;;
274;;;;;;;10765.8422088189;-0.68115234375;-0.00108428955078125;-0.6798095703125;3;;
275;;;;;;;10766.0863498182;-0.68359375;-0.0010833740234375;-0.682220458984375;3;;
276;;;;;;;10766.3304908176;-0.68603515625;-0.00108428955078125;-0.6846923828125;3;;
277;;;;;;;10766.574631817;-0.6884765625;-0.00108154296875;-0.68707275390625;3;;
278;;;;;;;10766.8187728164;-0.69091796875;-0.00108123779296875;-0.689544677734375;3;;
279;;;;;;;10767.0629138158;-0.693359375;-0.00108154296875;-0.6920166015625;3;;
280;;;;;;;10767.3070548152;-0.69580078125;-0.0010821533203125;-0.6944580078125;3;;
281;;;;;;;10767.5511958145;-0.6982421875;-0.00108062744140625;-0.696868896484375;3;;
282;;;;;;;10767.7953368139;-0.70068359375;-0.0010809326171875;-0.6993408203125;3;;
283;;;;;;;10768.0394778133;-0.703125;-0.0010791015625;-0.701812744140625;3;;
284;;;;;;;10768.2836188127;-0.70556640625;-0.00107757568359375;-0.7042236328125;3;;
285;;;;;;;10768.5277598121;-0.7080078125;-0.00107696533203125;-0.706695556640625;3;;
286;;;;;;;10768.7719008115;-0.71044921875;-0.00107574462890625;-0.709136962890625;3;;
287;;;;;;;10769.0160418108;-0.712890625;-0.00107635498046875;-0.7115478515625;3;;
288;;;;;;;10769.2601828102;-0.71533203125;-0.00107666015625;-0.714019775390625;3;;
289;;;;;;;10769.5043238096;-0.7177734375;-0.0010760498046875;-0.7164306640625;3;;
290;;;;;;;10769.748464809;-0.72021484375;-0.00107513427734375;-0.7188720703125;3;;
291;;;;;;;10769.9926058084;-0.72265625;-0.00107452392578125;-0.7213134765625;3;;
292;;;;;;;10770.2367468078;-0.72509765625;-0.001072998046875;-0.723724365234375;3;;
293;;;;;;;10770.4808878071;-0.7275390625;-0.00107177734375;-0.7261962890625;3;;
294;;;;;;;10770.7250288065;-0.72998046875;-0.0010711669921875;-0.728607177734375;3;;
295;;;;;;;10770.9691698059;-0.732421875;-0.00107147216796875;-0.731048583984375;3;;
296;;;;;;;10771.2133108053;-0.73486328125;-0.00107086181640625;-0.73358154296875;3;;
297;;;;;;;10771.4574518047;-0.7373046875;-0.00107269287109375;-0.735931396484375;3;;
298;;;;;;;10771.7015928041;-0.73974609375;-0.00107025146484375;-0.738433837890625;3;;
299;;;;;;;10771.9457338035;-0.7421875;-0.00107025146484375;-0.7408447265625;3;;
300;;;;;;;10772.1898748028;-0.74462890625;-0.0010693359375;-0.743255615234375;3;;
301;;;;;;;10772.4340158022;-0.7470703125;-0.00106781005859375;-0.745697021484375;3;;
302;;;;;;;10772.6781568016;-0.74951171875;-0.00106658935546875;-0.7481689453125;3;;
303;;;;;;;10772.922297801;-0.751953125;-0.00106658935546875;-0.7513427734375;3;;
304;;;;;;;10773.1664388004;-0.75439453125;-0.0010675048828125;-0.7537841796875;3;;
305;;;;;;;10773.4105797998;-0.7568359375;-0.001065673828125;-0.7562255859375;3;;
306;;;;;;;10773.6547207991;-0.75927734375;-0.00106597900390625;-0.75836181640625;3;;
307;;;;;;;10773.8988617985;-0.76171875;-0.00106536865234375;-0.7611083984375;3;;
308;;;;;;;10774.1430027979;-0.76416015625;-0.00106536865234375;-0.76416015625;3;;
309;;;;;;;10774.3871437973;-0.7666015625;-0.001063232421875;-0.76629638671875;3;;
310;;;;;;;10774.6312847967;-0.76904296875;-0.0010638427734375;-0.767822265625;3;;
311;;;;;;;10774.8754257961;-0.771484375;-0.00106231689453125;-0.77117919921875;3;;
312;;;;;;;10775.1195667954;-0.77392578125;-0.001063232421875;-0.77362060546875;3;;
313;;;;;;;10775.3637077948;-0.7763671875;-0.00106231689453125;-0.7757568359375;3;;
314;;;;;;;10775.6078487942;-0.77880859375;-0.00106292724609375;-0.7781982421875;3;;
315;;;;;;;10775.8519897936;-0.78125;-0.00106170654296875;-0.78094482421875;3;;
316;;;;;;;10776.096130793;-0.78369140625;-0.00106109619140625;-0.782470703125;3;;
317;;;;;;;10776.3402717924;-0.7861328125;-0.0010595703125;-0.78582763671875;3;;
318;;;;;;;10776.5844127917;-0.78857421875;-0.0010595703125;-0.78826904296875;3;;
319;;;;;;;10776.8285537911;-0.791015625;-0.0010577392578125;-0.79010009765625;3;;
320;;;;;;;10777.0726947905;-0.79345703125;-0.00105926513671875;-0.7928466796875;3;;
321;;;;;;;10777.3168357899;-0.7958984375;-0.00105865478515625;-0.79498291015625;3;;
322;;;;;;;10777.5609767893;-0.79833984375;-0.00105865478515625;-0.7977294921875;3;;
323;;;;;;;10777.8051177887;-0.80078125;-0.00106170654296875;-0.8001708984375;3;;
324;;;;;;;10778.049258788;-0.80322265625;-0.0010595703125;-0.80230712890625;3;;
325;;;;;;;10778.2933997874;-0.8056640625;-0.0010595703125;-0.80474853515625;3;;
326;;;;;;;10778.5375407868;-0.80810546875;-0.0010614013671875;-0.80718994140625;3;;
327;;;;;;;10778.7816817862;-0.810546875;-0.0010601806640625;-0.809326171875;3;;
328;;;;;;;10779.0258227856;-0.81298828125;-0.0010595703125;-0.8123779296875;3;;
329;;;;;;;10779.269963785;-0.8154296875;-0.0010601806640625;-0.814208984375;3;;
330;;;;;;;10779.5141047843;-0.81787109375;-0.00105987548828125;-0.81695556640625;3;;
331;;;;;;;10779.7582457837;-0.8203125;-0.0010601806640625;-0.8197021484375;3;;
332;;;;;;;10780.0023867831;-0.82275390625;-0.00106109619140625;-0.8221435546875;3;;
333;;;;;;;10780.2465277825;-0.8251953125;-0.00106170654296875;-0.82427978515625;3;;
334;;;;;;;10780.4906687819;-0.82763671875;-0.00106292724609375;-0.8270263671875;3;;
335;;;;;;;10780.7348097813;-0.830078125;-0.0010614013671875;-0.82916259765625;3;;
336;;;;;;;10780.9789507806;-0.83251953125;-0.0010614013671875;-0.8319091796875;3;;
337;;;;;;;10781.22309178;-0.8349609375;-0.001060791015625;-0.8343505859375;3;;
338;;;;;;;10781.4672327794;-0.83740234375;-0.001060791015625;-0.83648681640625;3;;
339;;;;;;;10781.7113737788;-0.83984375;-0.00106109619140625;-0.83892822265625;3;;
340;;;;;;;10781.9555147782;-0.84228515625;-0.001063232421875;-0.8416748046875;3;;
341;;;;;;;10782.1996557776;-0.8447265625;-0.0010638427734375;-0.84381103515625;3;;
342;;;;;;;10782.4437967769;-0.84716796875;-0.0010638427734375;-0.84716796875;3;;
343;;;;;;;10782.6879377763;-0.849609375;-0.00106536865234375;-0.84930419921875;3;;
344;;;;;;;10782.9320787757;-0.85205078125;-0.00106597900390625;-0.85113525390625;3;;
345;;;;;;;10783.1762197751;-0.8544921875;-0.0010650634765625;-0.85357666015625;3;;
346;;;;;;;10783.4203607745;-0.85693359375;-0.00106475830078125;-0.85601806640625;3;;
347;;;;;;;10783.6645017739;-0.859375;-0.00106658935546875;-0.85845947265625;3;;
348;;;;;;;10783.9086427732;-0.86181640625;-0.00106781005859375;-0.8612060546875;3;;
349;;;;;;;10784.1527837726;-0.8642578125;-0.00107025146484375;-0.86334228515625;3;;
350;;;;;;;10784.396924772;-0.86669921875;-0.00107147216796875;-0.86669921875;3;;
351;;;;;;;10784.6410657714;-0.869140625;-0.00107086181640625;-0.86822509765625;3;;
352;;;;;;;10784.8852067708;-0.87158203125;-0.00107147216796875;-0.87066650390625;3;;
353;;;;;;;10785.1293477702;-0.8740234375;-0.0010711669921875;-0.87310791015625;3;;
354;;;;;;;10785.3734887696;-0.87646484375;-0.00107086181640625;-0.87615966796875;3;;
355;;;;;;;10785.6176297689;-0.87890625;-0.0010723876953125;-0.87799072265625;3;;
356;;;;;;;10785.8617707683;-0.88134765625;-0.00107421875;-0.8807373046875;3;;
357;;;;;;;10786.1059117677;-0.8837890625;-0.0010736083984375;-0.8831787109375;3;;
358;;;;;;;10786.3500527671;-0.88623046875;-0.00107513427734375;-0.88470458984375;3;;
359;;;;;;;10786.5941937665;-0.888671875;-0.0010772705078125;-0.8880615234375;3;;
360;;;;;;;10786.8383347659;-0.89111328125;-0.001077880859375;-0.8905029296875;3;;
361;;;;;;;10787.0824757652;-0.8935546875;-0.00108001708984375;-0.8929443359375;3;;
362;;;;;;;10787.3266167646;-0.89599609375;-0.00107757568359375;-0.89569091796875;3;;
363;;;;;;;10787.570757764;-0.8984375;-0.0010791015625;-0.8978271484375;3;;
364;;;;;;;10787.8148987634;-0.90087890625;-0.00107879638671875;-0.9002685546875;3;;
365;;;;;;;10788.0590397628;-0.9033203125;-0.00107879638671875;-0.90301513671875;3;;
366;;;;;;;10788.3031807622;-0.90576171875;-0.0010809326171875;-0.90484619140625;3;;
367;;;;;;;10788.5473217615;-0.908203125;-0.0010833740234375;-0.908203125;3;;
368;;;;;;;10788.7914627609;-0.91064453125;-0.0010833740234375;-0.9100341796875;3;;
369;;;;;;;10789.0356037603;-0.9130859375;-0.00108367919921875;-0.91217041015625;3;;
370;;;;;;;10789.2797447597;-0.91552734375;-0.001083984375;-0.91522216796875;3;;
371;;;;;;;10789.5238857591;-0.91796875;-0.0010833740234375;-0.91766357421875;3;;
372;;;;;;;10789.7680267585;-0.92041015625;-0.00108489990234375;-0.9197998046875;3;;
373;;;;;;;10790.0121677578;-0.9228515625;-0.00108642578125;-0.92193603515625;3;;
374;;;;;;;10790.2563087572;-0.92529296875;-0.00108795166015625;-0.924072265625;3;;
375;;;;;;;10790.5004497566;-0.927734375;-0.00108795166015625;-0.92681884765625;3;;
376;;;;;;;10790.744590756;-0.93017578125;-0.0010870361328125;-0.9295654296875;3;;
377;;;;;;;10790.9887317554;-0.9326171875;-0.00108856201171875;-0.9320068359375;3;;
378;;;;;;;10791.2328727548;-0.93505859375;-0.00108856201171875;-0.93414306640625;3;;
379;;;;;;;10791.4770137541;-0.9375;-0.00108917236328125;-0.93719482421875;3;;
380;;;;;;;10791.7211547535;-0.93994140625;-0.0010882568359375;-0.9393310546875;3;;
381;;;;;;;10791.9652957529;-0.9423828125;-0.00108856201171875;-0.94146728515625;3;;
382;;;;;;;10792.2094367523;-0.94482421875;-0.00109039306640625;-0.9442138671875;3;;
383;;;;;;;10792.4535777517;-0.947265625;-0.00108978271484375;-0.9466552734375;3;;
384;;;;;;;10792.6977187511;-0.94970703125;-0.0010906982421875;-0.94879150390625;3;;
385;;;;;;;10792.9418597504;-0.9521484375;-0.001092529296875;-0.95123291015625;3;;
386;;;;;;;10793.1860007498;-0.95458984375;-0.00109100341796875;-0.9539794921875;3;;
387;;;;;;;10793.4301417492;-0.95703125;-0.00109222412109375;-0.95611572265625;3;;
388;;;;;;;10793.6742827486;-0.95947265625;-0.00109283447265625;-0.9588623046875;3;;
389;;;;;;;10793.918423748;-0.9619140625;-0.00109100341796875;-0.96099853515625;3;;
390;;;;;;;10794.1625647474;-0.96435546875;-0.0010919189453125;-0.96405029296875;3;;
391;;;;;;;10794.4067057467;-0.966796875;-0.00109222412109375;-0.9661865234375;3;;
392;;;;;;;10794.6508467461;-0.96923828125;-0.001092529296875;-0.96893310546875;3;;
393;;;;;;;10794.8949877455;-0.9716796875;-0.00109283447265625;-0.97076416015625;3;;
394;;;;;;;10795.1391287449;-0.97412109375;-0.00109375;-0.9735107421875;3;;
395;;;;;;;10795.3832697443;-0.9765625;-0.0010955810546875;-0.9765625;3;;
396;;;;;;;10795.6274107437;-0.97900390625;-0.00109649658203125;-0.9783935546875;3;;
397;;;;;;;10795.871551743;-0.9814453125;-0.00109527587890625;-0.9808349609375;3;;
398;;;;;;;10796.1156927424;-0.98388671875;-0.00109619140625;-0.98358154296875;3;;
399;;;;;;;10796.3598337418;-0.986328125;-0.00109649658203125;-0.98541259765625;3;;
400;;;;;;;10796.6039747412;-0.98876953125;-0.00109527587890625;-0.98785400390625;3;;
401;;;;;;;10796.8481157406;-0.9912109375;-0.001097412109375;-0.989990234375;3;;
402;;;;;;;10797.09225674;-0.99365234375;-0.0010992431640625;-0.9930419921875;3;;
403;;;;;;;10797.3363977393;-0.99609375;-0.00109954833984375;-0.99517822265625;3;;
404;;;;;;;10797.5805387387;-0.99853515625;-0.00109954833984375;-0.99761962890625;3;;
405;;;;;;;10797.8246797381;-1.0009765625;-0.00110015869140625;-1.00067138671875;3;;
406;;;;;;;10798.0688207375;-0.99853515625;-0.00109283447265625;-0.99822998046875;3;;
407;;;;;;;10798.3129617369;-0.99609375;-0.0010870361328125;-0.99517822265625;3;;
408;;;;;;;10798.5571027363;-0.99365234375;-0.0010821533203125;-0.9930419921875;3;;
409;;;;;;;10798.8012437356;-0.9912109375;-0.00107818603515625;-0.9906005859375;3;;
410;;;;;;;10799.045384735;-0.98876953125;-0.0010760498046875;-0.9881591796875;3;;
411;;;;;;;10799.2895257344;-0.986328125;-0.00107208251953125;-0.985107421875;3;;
412;;;;;;;10799.5336667338;-0.98388671875;-0.00106903076171875;-0.98297119140625;3;;
413;;;;;;;10799.7778077332;-0.9814453125;-0.00106597900390625;-0.9808349609375;3;;
414;;;;;;;10800.0219487326;-0.97900390625;-0.00106292724609375;-0.9783935546875;3;;
415;;;;;;;10800.2660897319;-0.9765625;-0.00106048583984375;-0.9759521484375;3;;
416;;;;;;;10800.5102307313;-0.97412109375;-0.00105865478515625;-0.972900390625;3;;
417;;;;;;;10800.7543717307;-0.9716796875;-0.00105621337890625;-0.9710693359375;3;;
418;;;;;;;10800.9985127301;-0.96923828125;-0.00105316162109375;-0.96923828125;3;;
419;;;;;;;10801.2426537295;-0.966796875;-0.00105255126953125;-0.965576171875;3;;
420;;;;;;;10801.4867947289;-0.96435546875;-0.00105255126953125;-0.96405029296875;3;;
421;;;;;;;10801.7309357283;-0.9619140625;-0.00104949951171875;-0.9613037109375;3;;
422;;;;;;;10801.9750767276;-0.95947265625;-0.0010479736328125;-0.95855712890625;3;;
423;;;;;;;10802.219217727;-0.95703125;-0.0010455322265625;-0.9564208984375;3;;
424;;;;;;;10802.4633587264;-0.95458984375;-0.0010430908203125;-0.95367431640625;3;;
425;;;;;;;10802.7074997258;-0.9521484375;-0.00104095458984375;-0.9515380859375;3;;
426;;;;;;;10802.9516407252;-0.94970703125;-0.00103851318359375;-0.94940185546875;3;;
427;;;;;;;10803.1957817246;-0.947265625;-0.00103759765625;-0.9466552734375;3;;
428;;;;;;;10803.4399227239;-0.94482421875;-0.00103790283203125;-0.9442138671875;3;;
429;;;;;;;10803.6840637233;-0.9423828125;-0.00103790283203125;-0.9417724609375;3;;
430;;;;;;;10803.9282047227;-0.93994140625;-0.001036376953125;-0.93963623046875;3;;
431;;;;;;;10804.1723457221;-0.9375;-0.0010345458984375;-0.9368896484375;3;;
432;;;;;;;10804.4164867215;-0.93505859375;-0.00103240966796875;-0.93414306640625;3;;
433;;;;;;;10804.6606277209;-0.9326171875;-0.00103057861328125;-0.93231201171875;3;;
434;;;;;;;10804.9047687202;-0.93017578125;-0.001029052734375;-0.92987060546875;3;;
435;;;;;;;10805.1489097196;-0.927734375;-0.0010272216796875;-0.926513671875;3;;
436;;;;;;;10805.393050719;-0.92529296875;-0.00102630615234375;-0.9246826171875;3;;
437;;;;;;;10805.6371917184;-0.9228515625;-0.00102630615234375;-0.92193603515625;3;;
438;;;;;;;10805.8813327178;-0.92041015625;-0.0010247802734375;-0.9197998046875;3;;
439;;;;;;;10806.1254737172;-0.91796875;-0.00102508544921875;-0.91766357421875;3;;
440;;;;;;;10806.3696147165;-0.91552734375;-0.001025390625;-0.9149169921875;3;;
441;;;;;;;10806.6137557159;-0.9130859375;-0.00102142333984375;-0.91217041015625;3;;
442;;;;;;;10806.8578967153;-0.91064453125;-0.00101959228515625;-0.909423828125;3;;
443;;;;;;;10807.1020377147;-0.908203125;-0.00101837158203125;-0.9075927734375;3;;
444;;;;;;;10807.3461787141;-0.90576171875;-0.0010186767578125;-0.9051513671875;3;;
445;;;;;;;10807.5903197135;-0.9033203125;-0.00101715087890625;-0.9027099609375;3;;
446;;;;;;;10807.8344607128;-0.90087890625;-0.001016845703125;-0.9002685546875;3;;
447;;;;;;;10808.0786017122;-0.8984375;-0.00101715087890625;-0.897216796875;3;;
448;;;;;;;10808.3227427116;-0.89599609375;-0.00101470947265625;-0.89569091796875;3;;
449;;;;;;;10808.566883711;-0.8935546875;-0.00101348876953125;-0.89263916015625;3;;
450;;;;;;;10808.8110247104;-0.89111328125;-0.00101409912109375;-0.89019775390625;3;;
451;;;;;;;10809.0551657098;-0.888671875;-0.0010113525390625;-0.8880615234375;3;;
452;;;;;;;10809.2993067091;-0.88623046875;-0.00100982666015625;-0.88531494140625;3;;
453;;;;;;;10809.5434477085;-0.8837890625;-0.00100921630859375;-0.88287353515625;3;;
454;;;;;;;10809.7875887079;-0.88134765625;-0.00100921630859375;-0.8807373046875;3;;
455;;;;;;;10810.0317297073;-0.87890625;-0.00101043701171875;-0.87890625;3;;
456;;;;;;;10810.2758707067;-0.87646484375;-0.00101104736328125;-0.8758544921875;3;;
457;;;;;;;10810.5200117061;-0.8740234375;-0.00100830078125;-0.87310791015625;3;;
458;;;;;;;10810.7641527054;-0.87158203125;-0.00100860595703125;-0.87066650390625;3;;
459;;;;;;;10811.0082937048;-0.869140625;-0.001005859375;-0.86822509765625;3;;
460;;;;;;;10811.2524347042;-0.86669921875;-0.00100616455078125;-0.865478515625;3;;
461;;;;;;;10811.4965757036;-0.8642578125;-0.00100494384765625;-0.863037109375;3;;
462;;;;;;;10811.740716703;-0.86181640625;-0.001004638671875;-0.86090087890625;3;;
463;;;;;;;10811.9848577024;-0.859375;-0.001005859375;-0.8587646484375;3;;
464;;;;;;;10812.2289987017;-0.85693359375;-0.00100616455078125;-0.85601806640625;3;;
465;;;;;;;10812.4731397011;-0.8544921875;-0.001004638671875;-0.85357666015625;3;;
466;;;;;;;10812.7172807005;-0.85205078125;-0.0010028076171875;-0.8514404296875;3;;
467;;;;;;;10812.9614216999;-0.849609375;-0.00100372314453125;-0.8489990234375;3;;
468;;;;;;;10813.2055626993;-0.84716796875;-0.00100433349609375;-0.8465576171875;3;;
469;;;;;;;10813.4497036987;-0.8447265625;-0.00100372314453125;-0.8441162109375;3;;
470;;;;;;;10813.693844698;-0.84228515625;-0.00100128173828125;-0.841064453125;3;;
471;;;;;;;10813.9379856974;-0.83984375;-0.0010015869140625;-0.8392333984375;3;;
472;;;;;;;10814.1821266968;-0.83740234375;-0.00100128173828125;-0.8367919921875;3;;
473;;;;;;;10814.4262676962;-0.8349609375;-0.0010028076171875;-0.833740234375;3;;
474;;;;;;;10814.6704086956;-0.83251953125;-0.00100372314453125;-0.83160400390625;3;;
475;;;;;;;10814.914549695;-0.830078125;-0.00100433349609375;-0.8294677734375;3;;
476;;;;;;;10815.1586906943;-0.82763671875;-0.0010040283203125;-0.8270263671875;3;;
477;;;;;;;10815.4028316937;-0.8251953125;-0.00100311279296875;-0.82489013671875;3;;
478;;;;;;;10815.6469726931;-0.82275390625;-0.001002197265625;-0.82183837890625;3;;
479;;;;;;;10815.8911136925;-0.8203125;-0.00100128173828125;-0.81939697265625;3;;
480;;;;;;;10816.1352546919;-0.81787109375;-0.00100341796875;-0.81695556640625;3;;
481;;;;;;;10816.3793956913;-0.8154296875;-0.0010040283203125;-0.81451416015625;3;;
482;;;;;;;10816.6235366907;-0.81298828125;-0.00100433349609375;-0.8123779296875;3;;
483;;;;;;;10816.86767769;-0.810546875;-0.001005859375;-0.80963134765625;3;;
484;;;;;;;10817.1118186894;-0.80810546875;-0.00100494384765625;-0.80718994140625;3;;
485;;;;;;;10817.3559596888;-0.8056640625;-0.001005859375;-0.8050537109375;3;;
486;;;;;;;10817.6001006882;-0.80322265625;-0.0010064697265625;-0.8026123046875;3;;
487;;;;;;;10817.8442416876;-0.80078125;-0.00100677490234375;-0.80047607421875;3;;
488;;;;;;;10818.088382687;-0.79833984375;-0.0010076904296875;-0.79803466796875;3;;
489;;;;;;;10818.3325236863;-0.7958984375;-0.00100921630859375;-0.794677734375;3;;
490;;;;;;;10818.5766646857;-0.79345703125;-0.00101043701171875;-0.7928466796875;3;;
491;;;;;;;10818.8208056851;-0.791015625;-0.00101104736328125;-0.7904052734375;3;;
492;;;;;;;10819.0649466845;-0.78857421875;-0.00101165771484375;-0.7879638671875;3;;
493;;;;;;;10819.3090876839;-0.7861328125;-0.0010125732421875;-0.78582763671875;3;;
494;;;;;;;10819.5532286833;-0.78369140625;-0.0010125732421875;-0.7830810546875;3;;
495;;;;;;;10819.7973696826;-0.78125;-0.0010125732421875;-0.78033447265625;3;;
496;;;;;;;10820.041510682;-0.77880859375;-0.00101409912109375;-0.77789306640625;3;;
497;;;;;;;10820.2856516814;-0.7763671875;-0.00101531982421875;-0.77545166015625;3;;
498;;;;;;;10820.5297926808;-0.77392578125;-0.00101715087890625;-0.77301025390625;3;;
499;;;;;;;10820.7739336802;-0.771484375;-0.00101776123046875;-0.7708740234375;3;;
500;;;;;;;10821.0180746796;-0.76904296875;-0.00101959228515625;-0.767822265625;3;;
501;;;;;;;10821.2622156789;-0.7666015625;-0.00102142333984375;-0.76568603515625;3;;
502;;;;;;;10821.5063566783;-0.76416015625;-0.0010235595703125;-0.7635498046875;3;;
503;;;;;;;10821.7504976777;-0.76171875;-0.00102294921875;-0.7611083984375;3;;
504;;;;;;;10821.9946386771;-0.75927734375;-0.00102508544921875;-0.758056640625;3;;
505;;;;;;;10822.2387796765;-0.7568359375;-0.001021728515625;-0.75592041015625;3;;
506;;;;;;;10822.4829206759;-0.75439453125;-0.0010260009765625;-0.75347900390625;3;;
507;;;;;;;10822.7270616752;-0.751953125;-0.00102813720703125;-0.75164794921875;3;;
508;;;;;;;10822.9712026746;-0.74951171875;-0.00102996826171875;-0.748077392578125;3;;
509;;;;;;;10823.215343674;-0.7470703125;-0.0010308837890625;-0.7457275390625;3;;
510;;;;;;;10823.4594846734;-0.74462890625;-0.00103240966796875;-0.743255615234375;3;;
511;;;;;;;10823.7036256728;-0.7421875;-0.00103240966796875;-0.7408447265625;3;;
512;;;;;;;10823.9477666722;-0.73974609375;-0.0010345458984375;-0.738372802734375;3;;
513;;;;;;;10824.1919076715;-0.7373046875;-0.0010357666015625;-0.73602294921875;3;;
514;;;;;;;10824.4360486709;-0.73486328125;-0.00103485107421875;-0.7335205078125;3;;
515;;;;;;;10824.6801896703;-0.732421875;-0.00103668212890625;-0.7310791015625;3;;
516;;;;;;;10824.9243306697;-0.72998046875;-0.0010400390625;-0.7286376953125;3;;
517;;;;;;;10825.1684716691;-0.7275390625;-0.00104217529296875;-0.72625732421875;3;;
518;;;;;;;10825.4126126685;-0.72509765625;-0.00104339599609375;-0.723785400390625;3;;
519;;;;;;;10825.6567536678;-0.72265625;-0.0010443115234375;-0.721343994140625;3;;
520;;;;;;;10825.9008946672;-0.72021484375;-0.00104339599609375;-0.7188720703125;3;;
521;;;;;;;10826.1450356666;-0.7177734375;-0.001046142578125;-0.716461181640625;3;;
522;;;;;;;10826.389176666;-0.71533203125;-0.00104583740234375;-0.714019775390625;3;;
523;;;;;;;10826.6333176654;-0.712890625;-0.00104644775390625;-0.711578369140625;3;;
524;;;;;;;10826.8774586648;-0.71044921875;-0.0010498046875;-0.709136962890625;3;;
525;;;;;;;10827.1215996641;-0.7080078125;-0.0010504150390625;-0.7066650390625;3;;
526;;;;;;;10827.3657406635;-0.70556640625;-0.0010528564453125;-0.704315185546875;3;;
527;;;;;;;10827.6098816629;-0.703125;-0.00105377197265625;-0.7017822265625;3;;
528;;;;;;;10827.8540226623;-0.70068359375;-0.0010546875;-0.699371337890625;3;;
529;;;;;;;10828.0981636617;-0.6982421875;-0.0010552978515625;-0.6968994140625;3;;
530;;;;;;;10828.3423046611;-0.69580078125;-0.00105743408203125;-0.6944580078125;3;;
531;;;;;;;10828.5864456604;-0.693359375;-0.00105743408203125;-0.6920166015625;3;;
532;;;;;;;10828.8305866598;-0.69091796875;-0.00105712890625;-0.689483642578125;3;;
533;;;;;;;10829.0747276592;-0.6884765625;-0.001058349609375;-0.687164306640625;3;;
534;;;;;;;10829.3188686586;-0.68603515625;-0.0010614013671875;-0.6846923828125;3;;
535;;;;;;;10829.563009658;-0.68359375;-0.00106231689453125;-0.682281494140625;3;;
536;;;;;;;10829.8071506574;-0.68115234375;-0.00106414794921875;-0.6798095703125;3;;
537;;;;;;;10830.0512916568;-0.6787109375;-0.001064453125;-0.677398681640625;3;;
538;;;;;;;10830.2954326561;-0.67626953125;-0.001064453125;-0.675018310546875;3;;
539;;;;;;;10830.5395736555;-0.673828125;-0.00106414794921875;-0.67254638671875;3;;
540;;;;;;;10830.7837146549;-0.67138671875;-0.001064453125;-0.670135498046875;3;;
541;;;;;;;10831.0278556543;-0.6689453125;-0.00106689453125;-0.667633056640625;3;;
542;;;;;;;10831.2719966537;-0.66650390625;-0.001068115234375;-0.6651611328125;3;;
543;;;;;;;10831.5161376531;-0.6640625;-0.00107025146484375;-0.6627197265625;3;;
544;;;;;;;10831.7602786524;-0.66162109375;-0.0010693359375;-0.660308837890625;3;;
545;;;;;;;10832.0044196518;-0.6591796875;-0.00106903076171875;-0.6578369140625;3;;
546;;;;;;;10832.2485606512;-0.65673828125;-0.0010693359375;-0.6553955078125;3;;
547;;;;;;;10832.4927016506;-0.654296875;-0.00106964111328125;-0.652984619140625;3;;
548;;;;;;;10832.73684265;-0.65185546875;-0.00106842041015625;-0.65057373046875;3;;
549;;;;;;;10832.9809836494;-0.6494140625;-0.00106842041015625;-0.648040771484375;3;;
550;;;;;;;10833.2251246487;-0.64697265625;-0.00106903076171875;-0.645660400390625;3;;
551;;;;;;;10833.4692656481;-0.64453125;-0.00107177734375;-0.64324951171875;3;;
552;;;;;;;10833.7134066475;-0.64208984375;-0.00107208251953125;-0.640777587890625;3;;
553;;;;;;;10833.9575476469;-0.6396484375;-0.00107269287109375;-0.63836669921875;3;;
554;;;;;;;10834.2016886463;-0.63720703125;-0.0010723876953125;-0.6358642578125;3;;
555;;;;;;;10834.4458296457;-0.634765625;-0.00107147216796875;-0.633514404296875;3;;
556;;;;;;;10834.689970645;-0.63232421875;-0.00107208251953125;-0.6309814453125;3;;
557;;;;;;;10834.9341116444;-0.6298828125;-0.0010687255859375;-0.6285400390625;3;;
558;;;;;;;10835.1782526438;-0.62744140625;-0.00106964111328125;-0.626190185546875;3;;
559;;;;;;;10835.4223936432;-0.625;-0.0010699462890625;-0.623687744140625;3;;
560;;;;;;;10835.6665346426;-0.62255859375;-0.0010699462890625;-0.621246337890625;3;;
561;;;;;;;10835.910675642;-0.6201171875;-0.0010687255859375;-0.61883544921875;3;;
562;;;;;;;10836.1548166413;-0.61767578125;-0.00107147216796875;-0.616363525390625;3;;
563;;;;;;;10836.3989576407;-0.615234375;-0.00107025146484375;-0.61395263671875;3;;
564;;;;;;;10836.6430986401;-0.61279296875;-0.00107086181640625;-0.611480712890625;3;;
565;;;;;;;10836.8872396395;-0.6103515625;-0.00106842041015625;-0.609039306640625;3;;
566;;;;;;;10837.1313806389;-0.60791015625;-0.00106719970703125;-0.606597900390625;3;;
567;;;;;;;10837.3755216383;-0.60546875;-0.0010675048828125;-0.604156494140625;3;;
568;;;;;;;10837.6196626376;-0.60302734375;-0.0010675048828125;-0.60174560546875;3;;
569;;;;;;;10837.863803637;-0.6005859375;-0.00106781005859375;-0.59930419921875;3;;
570;;;;;;;10838.1079446364;-0.59814453125;-0.001068115234375;-0.596832275390625;3;;
571;;;;;;;10838.3520856358;-0.595703125;-0.00106658935546875;-0.594451904296875;3;;
572;;;;;;;10838.5962266352;-0.59326171875;-0.00106475830078125;-0.59197998046875;3;;
573;;;;;;;10838.8403676346;-0.5908203125;-0.001064453125;-0.589508056640625;3;;
574;;;;;;;10839.0845086339;-0.58837890625;-0.00106353759765625;-0.587127685546875;3;;
575;;;;;;;10839.3286496333;-0.5859375;-0.00106170654296875;-0.584747314453125;3;;
576;;;;;;;10839.5727906327;-0.58349609375;-0.001060791015625;-0.582244873046875;3;;
577;;;;;;;10839.8169316321;-0.5810546875;-0.0010595703125;-0.57977294921875;3;;
578;;;;;;;10840.0610726315;-0.57861328125;-0.0010614013671875;-0.577362060546875;3;;
579;;;;;;;10840.3052136309;-0.576171875;-0.001060791015625;-0.574951171875;3;;
580;;;;;;;10840.5493546302;-0.57373046875;-0.00105987548828125;-0.572509765625;3;;
581;;;;;;;10840.7934956296;-0.5712890625;-0.0010589599609375;-0.570068359375;3;;
582;;;;;;;10841.037636629;-0.56884765625;-0.00105712890625;-0.567626953125;3;;
583;;;;;;;10841.2817776284;-0.56640625;-0.00105560302734375;-0.565155029296875;3;;
584;;;;;;;10841.5259186278;-0.56396484375;-0.00105499267578125;-0.562774658203125;3;;
585;;;;;;;10841.7700596272;-0.5615234375;-0.00105438232421875;-0.560272216796875;3;;
586;;;;;;;10842.0142006265;-0.55908203125;-0.00105499267578125;-0.557891845703125;3;;
587;;;;;;;10842.2583416259;-0.556640625;-0.0010540771484375;-0.555419921875;3;;
588;;;;;;;10842.5024826253;-0.55419921875;-0.00105224609375;-0.553009033203125;3;;
589;;;;;;;10842.7466236247;-0.5517578125;-0.00105377197265625;-0.550567626953125;3;;
590;;;;;;;10842.9907646241;-0.54931640625;-0.0010516357421875;-0.54815673828125;3;;
591;;;;;;;10843.2349056235;-0.546875;-0.00105133056640625;-0.545654296875;3;;
592;;;;;;;10843.4790466228;-0.54443359375;-0.00104827880859375;-0.54327392578125;3;;
593;;;;;;;10843.7231876222;-0.5419921875;-0.00104705810546875;-0.540802001953125;3;;
594;;;;;;;10843.9673286216;-0.53955078125;-0.00104644775390625;-0.538360595703125;3;;
595;;;;;;;10844.211469621;-0.537109375;-0.0010467529296875;-0.535919189453125;3;;
596;;;;;;;10844.4556106204;-0.53466796875;-0.001046142578125;-0.533538818359375;3;;
597;;;;;;;10844.6997516198;-0.5322265625;-0.0010455322265625;-0.531097412109375;3;;
598;;;;;;;10844.9438926191;-0.52978515625;-0.00104461669921875;-0.528594970703125;3;;
599;;;;;;;10845.1880336185;-0.52734375;-0.00104278564453125;-0.52618408203125;3;;
600;;;;;;;10845.4321746179;-0.52490234375;-0.00104156494140625;-0.52374267578125;3;;
601;;;;;;;10845.6763156173;-0.5224609375;-0.0010400390625;-0.5213623046875;3;;
602;;;;;;;10845.9204566167;-0.52001953125;-0.0010382080078125;-0.51885986328125;3;;
603;;;;;;;10846.1645976161;-0.517578125;-0.0010369873046875;-0.516387939453125;3;;
604;;;;;;;10846.4087386155;-0.51513671875;-0.001036376953125;-0.514007568359375;3;;
605;;;;;;;10846.6528796148;-0.5126953125;-0.0010369873046875;-0.511566162109375;3;;
606;;;;;;;10846.8970206142;-0.51025390625;-0.0010357666015625;-0.509063720703125;3;;
607;;;;;;;10847.1411616136;-0.5078125;-0.0010345458984375;-0.5067138671875;3;;
608;;;;;;;10847.385302613;-0.50537109375;-0.00103240966796875;-0.504302978515625;3;;
609;;;;;;;10847.6294436124;-0.5029296875;-0.001031494140625;-0.5018310546875;3;;
610;;;;;;;10847.8735846118;-0.50048828125;-0.0010296630859375;-0.499359130859375;3;;
611;;;;;;;10848.1177256111;-0.498046875;-0.00102783203125;-0.496978759765625;3;;
612;;;;;;;10848.3618666105;-0.49560546875;-0.00102630615234375;-0.494476318359375;3;;
613;;;;;;;10848.6060076099;-0.4931640625;-0.00102508544921875;-0.492034912109375;3;;
614;;;;;;;10848.8501486093;-0.49072265625;-0.001024169921875;-0.489593505859375;3;;
615;;;;;;;10849.0942896087;-0.48828125;-0.00102325439453125;-0.4871826171875;3;;
616;;;;;;;10849.3384306081;-0.48583984375;-0.001021728515625;-0.484771728515625;3;;
617;;;;;;;10849.5825716074;-0.4833984375;-0.00102020263671875;-0.48236083984375;3;;
618;;;;;;;10849.8267126068;-0.48095703125;-0.00101806640625;-0.479888916015625;3;;
619;;;;;;;10850.0708536062;-0.478515625;-0.0010162353515625;-0.477447509765625;3;;
620;;;;;;;10850.3149946056;-0.47607421875;-0.0010137939453125;-0.474945068359375;3;;
621;;;;;;;10850.559135605;-0.4736328125;-0.001011962890625;-0.47259521484375;3;;
622;;;;;;;10850.8032766044;-0.47119140625;-0.0010101318359375;-0.470123291015625;3;;
623;;;;;;;10851.0474176037;-0.46875;-0.00100860595703125;-0.467681884765625;3;;
624;;;;;;;10851.2915586031;-0.46630859375;-0.0010064697265625;-0.465301513671875;3;;
625;;;;;;;10851.5356996025;-0.4638671875;-0.001004638671875;-0.462799072265625;3;;
626;;;;;;;10851.7798406019;-0.46142578125;-0.00100250244140625;-0.460418701171875;3;;
627;;;;;;;10852.0239816013;-0.458984375;-0.00100006103515625;-0.4578857421875;3;;
628;;;;;;;10852.2681226007;-0.45654296875;-0.00099639892578125;-0.4554443359375;3;;
629;;;;;;;10852.5122636;-0.4541015625;-0.00099365234375;-0.453033447265625;3;;
630;;;;;;;10852.7564045994;-0.45166015625;-0.00099090576171875;-0.450653076171875;3;;
631;;;;;;;10853.0005455988;-0.44921875;-0.0009893798828125;-0.44818115234375;3;;
632;;;;;;;10853.2446865982;-0.44677734375;-0.000986328125;-0.445770263671875;3;;
633;;;;;;;10853.4888275976;-0.4443359375;-0.00098358154296875;-0.44329833984375;3;;
634;;;;;;;10853.732968597;-0.44189453125;-0.00097991943359375;-0.440887451171875;3;;
635;;;;;;;10853.9771095963;-0.439453125;-0.00097625732421875;-0.43841552734375;3;;
636;;;;;;;10854.2212505957;-0.43701171875;-0.000972900390625;-0.43603515625;3;;
637;;;;;;;10854.4653915951;-0.4345703125;-0.0009686279296875;-0.433563232421875;3;;
638;;;;;;;10854.7095325945;-0.43212890625;-0.00096466064453125;-0.431121826171875;3;;
639;;;;;;;10854.9536735939;-0.4296875;-0.00096099853515625;-0.428680419921875;3;;
640;;;;;;;10855.1978145933;-0.42724609375;-0.00095703125;-0.42626953125;3;;
641;;;;;;;10855.4419555926;-0.4248046875;-0.000953369140625;-0.423858642578125;3;;
642;;;;;;;10855.686096592;-0.42236328125;-0.00094879150390625;-0.421417236328125;3;;
643;;;;;;;10855.9302375914;-0.419921875;-0.00094390869140625;-0.418975830078125;3;;
644;;;;;;;10856.1743785908;-0.41748046875;-0.00093841552734375;-0.41650390625;3;;
645;;;;;;;10856.4185195902;-0.4150390625;-0.0009320068359375;-0.414031982421875;3;;
646;;;;;;;10856.6626605896;-0.41259765625;-0.000926513671875;-0.411651611328125;3;;
647;;;;;;;10856.9068015889;-0.41015625;-0.00092041015625;-0.40924072265625;3;;
648;;;;;;;10857.1509425883;-0.40771484375;-0.00091461181640625;-0.40679931640625;3;;
649;;;;;;;10857.3950835877;-0.4052734375;-0.00090850830078125;-0.404327392578125;3;;
650;;;;;;;10857.6392245871;-0.40283203125;-0.000902099609375;-0.401947021484375;3;;
651;;;;;;;10857.8833655865;-0.400390625;-0.0008953857421875;-0.3995361328125;3;;
652;;;;;;;10858.1275065859;-0.39794921875;-0.00088775634765625;-0.397003173828125;3;;
653;;;;;;;10858.3716475852;-0.3955078125;-0.00087982177734375;-0.39459228515625;3;;
654;;;;;;;10858.6157885846;-0.39306640625;-0.0008709716796875;-0.3922119140625;3;;
655;;;;;;;10858.859929584;-0.390625;-0.0008624267578125;-0.3897705078125;3;;
656;;;;;;;10859.1040705834;-0.38818359375;-0.0008538818359375;-0.387298583984375;3;;
657;;;;;;;10859.3482115828;-0.3857421875;-0.00084564208984375;-0.384857177734375;3;;
658;;;;;;;10859.5923525822;-0.38330078125;-0.0008367919921875;-0.382415771484375;3;;
659;;;;;;;10859.8364935815;-0.380859375;-0.00082763671875;-0.379913330078125;3;;
660;;;;;;;10860.0806345809;-0.37841796875;-0.00081787109375;-0.37750244140625;3;;
661;;;;;;;10860.3247755803;-0.3759765625;-0.0008074951171875;-0.375091552734375;3;;
662;;;;;;;10860.5689165797;-0.37353515625;-0.00079681396484375;-0.37261962890625;3;;
663;;;;;;;10860.8130575791;-0.37109375;-0.0007855224609375;-0.3702392578125;3;;
664;;;;;;;10861.0571985785;-0.36865234375;-0.0007745361328125;-0.367828369140625;3;;
665;;;;;;;10861.3013395779;-0.3662109375;-0.00076324462890625;-0.3653564453125;3;;
666;;;;;;;10861.5454805772;-0.36376953125;-0.000751953125;-0.362884521484375;3;;
667;;;;;;;10861.7896215766;-0.361328125;-0.0007403564453125;-0.360504150390625;3;;
668;;;;;;;10862.033762576;-0.35888671875;-0.000728759765625;-0.358062744140625;3;;
669;;;;;;;10862.2779035754;-0.3564453125;-0.00071624755859375;-0.355560302734375;3;;
670;;;;;;;10862.5220445748;-0.35400390625;-0.000703125;-0.35321044921875;3;;
671;;;;;;;10862.7661855742;-0.3515625;-0.00069000244140625;-0.350738525390625;3;;
672;;;;;;;10863.0103265735;-0.34912109375;-0.00067626953125;-0.348297119140625;3;;
673;;;;;;;10863.2544675729;-0.3466796875;-0.000662841796875;-0.34588623046875;3;;
674;;;;;;;10863.4986085723;-0.34423828125;-0.0006494140625;-0.34344482421875;3;;
675;;;;;;;10863.7427495717;-0.341796875;-0.000635986328125;-0.34100341796875;3;;
676;;;;;;;10863.9868905711;-0.33935546875;-0.00062255859375;-0.33856201171875;3;;
677;;;;;;;10864.2310315705;-0.3369140625;-0.00060882568359375;-0.336181640625;3;;
678;;;;;;;10864.4751725698;-0.33447265625;-0.000594482421875;-0.333709716796875;3;;
679;;;;;;;10864.7193135692;-0.33203125;-0.000579833984375;-0.331329345703125;3;;
680;;;;;;;10864.9634545686;-0.32958984375;-0.00056488037109375;-0.32879638671875;3;;
681;;;;;;;10865.207595568;-0.3271484375;-0.00055023193359375;-0.32635498046875;3;;
682;;;;;;;10865.4517365674;-0.32470703125;-0.00053558349609375;-0.323944091796875;3;;
683;;;;;;;10865.6958775668;-0.322265625;-0.00052093505859375;-0.321502685546875;3;;
684;;;;;;;10865.9400185661;-0.31982421875;-0.00050689697265625;-0.31915283203125;3;;
685;;;;;;;10866.1841595655;-0.3173828125;-0.0004930419921875;-0.316650390625;3;;
686;;;;;;;10866.4283005649;-0.31494140625;-0.000478729248046875;-0.314208984375;3;;
687;;;;;;;10866.6724415643;-0.3125;-0.000464019775390625;-0.311767578125;3;;
688;;;;;;;10866.9165825637;-0.31005859375;-0.00044921875;-0.30926513671875;3;;
689;;;;;;;10867.1607235631;-0.3076171875;-0.000434600830078125;-0.306884765625;3;;
690;;;;;;;10867.4048645624;-0.30517578125;-0.00042010498046875;-0.30450439453125;3;;
691;;;;;;;10867.6490055618;-0.302734375;-0.000406005859375;-0.302001953125;3;;
692;;;;;;;10867.8931465612;-0.30029296875;-0.000392364501953125;-0.299530029296875;3;;
693;;;;;;;10868.1372875606;-0.2978515625;-0.00037896728515625;-0.297149658203125;3;;
694;;;;;;;10868.38142856;-0.29541015625;-0.00036572265625;-0.294647216796875;3;;
695;;;;;;;10868.6255695594;-0.29296875;-0.00035247802734375;-0.292266845703125;3;;
696;;;;;;;10868.8697105587;-0.29052734375;-0.00033917236328125;-0.289825439453125;3;;
697;;;;;;;10869.1138515581;-0.2880859375;-0.000325927734375;-0.28741455078125;3;;
698;;;;;;;10869.3579925575;-0.28564453125;-0.000312957763671875;-0.284942626953125;3;;
699;;;;;;;10869.6021335569;-0.283203125;-0.000300201416015625;-0.28253173828125;3;;
700;;;;;;;10869.8462745563;-0.28076171875;-0.0002882080078125;-0.280029296875;3;;
701;;;;;;;10870.0904155557;-0.2783203125;-0.000276519775390625;-0.277618408203125;3;;
702;;;;;;;10870.334556555;-0.27587890625;-0.00026519775390625;-0.27520751953125;3;;
703;;;;;;;10870.5786975544;-0.2734375;-0.0002542724609375;-0.272796630859375;3;;
704;;;;;;;10870.8228385538;-0.27099609375;-0.000243255615234375;-0.27032470703125;3;;
705;;;;;;;10871.0669795532;-0.2685546875;-0.000232391357421875;-0.267974853515625;3;;
706;;;;;;;10871.3111205526;-0.26611328125;-0.000221771240234375;-0.2655029296875;3;;
707;;;;;;;10871.555261552;-0.263671875;-0.000211578369140625;-0.263092041015625;3;;
708;;;;;;;10871.7994025513;-0.26123046875;-0.00020166015625;-0.260589599609375;3;;
709;;;;;;;10872.0435435507;-0.2587890625;-0.000192352294921875;-0.2581787109375;3;;
710;;;;;;;10872.2876845501;-0.25634765625;-0.00018341064453125;-0.255706787109375;3;;
711;;;;;;;10872.5318255495;-0.25390625;-0.000174835205078125;-0.2532958984375;3;;
712;;;;;;;10872.7759665489;-0.25146484375;-0.000166473388671875;-0.2508544921875;3;;
713;;;;;;;10873.0201075483;-0.2490234375;-0.0001583251953125;-0.248443603515625;3;;
714;;;;;;;10873.2642485476;-0.24658203125;-0.000150390625;-0.245941162109375;3;;
715;;;;;;;10873.508389547;-0.244140625;-0.0001427001953125;-0.243499755859375;3;;
716;;;;;;;10873.7525305464;-0.24169921875;-0.000135345458984375;-0.2410888671875;3;;
717;;;;;;;10873.9966715458;-0.2392578125;-0.000128326416015625;-0.238616943359375;3;;
718;;;;;;;10874.2408125452;-0.23681640625;-0.0001217041015625;-0.23626708984375;3;;
719;;;;;;;10874.4849535446;-0.234375;-0.000115447998046875;-0.23382568359375;3;;
720;;;;;;;10874.7290945439;-0.23193359375;-0.000109466552734375;-0.231353759765625;3;;
721;;;;;;;10874.9732355433;-0.2294921875;-0.000103759765625;-0.228912353515625;3;;
722;;;;;;;10875.2173765427;-0.22705078125;-9.8236083984375E-05;-0.2264404296875;3;;
723;;;;;;;10875.4615175421;-0.224609375;-9.2864990234375E-05;-0.2239990234375;3;;
724;;;;;;;10875.7056585415;-0.22216796875;-8.770751953125E-05;-0.221588134765625;3;;
725;;;;;;;10875.9497995409;-0.2197265625;-8.2794189453125E-05;-0.21917724609375;3;;
726;;;;;;;10876.1939405403;-0.21728515625;-7.8216552734375E-05;-0.216705322265625;3;;
727;;;;;;;10876.4380815396;-0.21484375;-7.3974609375E-05;-0.214263916015625;3;;
728;;;;;;;10876.682222539;-0.21240234375;-6.9915771484375E-05;-0.2117919921875;3;;
729;;;;;;;10876.9263635384;-0.2099609375;-6.60400390625E-05;-0.209320068359375;3;;
730;;;;;;;10877.1705045378;-0.20751953125;-6.2347412109375E-05;-0.20697021484375;3;;
731;;;;;;;10877.4146455372;-0.205078125;-5.877685546875E-05;-0.204498291015625;3;;
732;;;;;;;10877.6587865366;-0.20263671875;-5.5389404296875E-05;-0.201995849609375;3;;
733;;;;;;;10877.9029275359;-0.2001953125;-5.2154541015625E-05;-0.19964599609375;3;;
734;;;;;;;10878.1470685353;-0.19775390625;-4.9041748046875E-05;-0.19720458984375;3;;
735;;;;;;;10878.3912095347;-0.1953125;-4.6258544921875E-05;-0.194793701171875;3;;
736;;;;;;;10878.6353505341;-0.19287109375;-4.35516357421875E-05;-0.19232177734375;3;;
737;;;;;;;10878.8794915335;-0.1904296875;-4.10400390625E-05;-0.189910888671875;3;;
738;;;;;;;10879.1236325329;-0.18798828125;-3.86199951171875E-05;-0.187469482421875;3;;
739;;;;;;;10879.3677735322;-0.185546875;-3.63433837890625E-05;-0.184967041015625;3;;
740;;;;;;;10879.6119145316;-0.18310546875;-3.41583251953125E-05;-0.18255615234375;3;;
741;;;;;;;10879.856055531;-0.1806640625;-3.20465087890625E-05;-0.180145263671875;3;;
742;;;;;;;10880.1001965304;-0.17822265625;-3.00384521484375E-05;-0.177703857421875;3;;
743;;;;;;;10880.3443375298;-0.17578125;-2.81829833984375E-05;-0.175262451171875;3;;
744;;;;;;;10880.5884785292;-0.17333984375;-2.64556884765625E-05;-0.1728515625;3;;
745;;;;;;;10880.8326195285;-0.1708984375;-2.48077392578125E-05;-0.17034912109375;3;;
746;;;;;;;10881.0767605279;-0.16845703125;-2.32635498046875E-05;-0.167877197265625;3;;
747;;;;;;;10881.3209015273;-0.166015625;-2.18231201171875E-05;-0.16552734375;3;;
748;;;;;;;10881.5650425267;-0.16357421875;-2.042236328125E-05;-0.163116455078125;3;;
749;;;;;;;10881.8091835261;-0.1611328125;-1.9110107421875E-05;-0.160675048828125;3;;
750;;;;;;;10882.0533245255;-0.15869140625;-1.78619384765625E-05;-0.158233642578125;3;;
751;;;;;;;10882.2974655248;-0.15625;-1.66656494140625E-05;-0.155792236328125;3;;
752;;;;;;;10882.5416065242;-0.15380859375;-1.55670166015625E-05;-0.1533203125;3;;
753;;;;;;;10882.7857475236;-0.1513671875;-1.45050048828125E-05;-0.15093994140625;3;;
754;;;;;;;10883.029888523;-0.14892578125;-1.35101318359375E-05;-0.14849853515625;3;;
755;;;;;;;10883.2740295224;-0.146484375;-1.259765625E-05;-0.146087646484375;3;;
756;;;;;;;10883.5181705218;-0.14404296875;-1.173095703125E-05;-0.14361572265625;3;;
757;;;;;;;10883.7623115211;-0.1416015625;-1.0894775390625E-05;-0.141204833984375;3;;
758;;;;;;;10884.0064525205;-0.13916015625;-1.0113525390625E-05;-0.138763427734375;3;;
759;;;;;;;10884.2505935199;-0.13671875;-9.38720703125E-06;-0.136322021484375;3;;
760;;;;;;;10884.4947345193;-0.13427734375;-8.7005615234375E-06;-0.133880615234375;3;;
761;;;;;;;10884.7388755187;-0.1318359375;-8.02001953125E-06;-0.131439208984375;3;;
762;;;;;;;10884.9830165181;-0.12939453125;-7.3974609375E-06;-0.128997802734375;3;;
763;;;;;;;10885.2271575174;-0.126953125;-6.8145751953125E-06;-0.12652587890625;3;;
764;;;;;;;10885.4712985168;-0.12451171875;-6.2835693359375E-06;-0.12408447265625;3;;
765;;;;;;;10885.7154395162;-0.1220703125;-5.7525634765625E-06;-0.121612548828125;3;;
766;;;;;;;10885.9595805156;-0.11962890625;-5.303955078125E-06;-0.11920166015625;3;;
767;;;;;;;10886.203721515;-0.1171875;-4.8187255859375E-06;-0.116790771484375;3;;
768;;;;;;;10886.4478625144;-0.11474609375;-4.38232421875E-06;-0.11444091796875;3;;
769;;;;;;;10886.6920035137;-0.1123046875;-3.9886474609375E-06;-0.1119384765625;3;;
770;;;;;;;10886.9361445131;-0.10986328125;-3.5870361328125E-06;-0.109466552734375;3;;
771;;;;;;;10887.1802855125;-0.107421875;-3.23699951171875E-06;-0.1070556640625;3;;
772;;;;;;;10887.4244265119;-0.10498046875;-2.92449951171875E-06;-0.104583740234375;3;;
773;;;;;;;10887.6685675113;-0.1025390625;-2.58758544921875E-06;-0.102142333984375;3;;
774;;;;;;;10887.9127085107;-0.10009765625;-2.279052734375E-06;-0.09979248046875;3;;
775;;;;;;;10888.15684951;-0.09765625;-1.995849609375E-06;-0.09735107421875;3;;
776;;;;;;;10888.4009905094;-0.09521484375;-1.71722412109375E-06;-0.094879150390625;3;;
777;;;;;;;10888.6451315088;-0.0927734375;-1.45721435546875E-06;-0.0924072265625;3;;
778;;;;;;;10888.8892725082;-0.09033203125;-1.2078857421875E-06;-0.09002685546875;3;;
779;;;;;;;10889.1334135076;-0.087890625;-1.00799560546875E-06;-0.08758544921875;3;;
780;;;;;;;10889.377554507;-0.08544921875;-7.763671875E-07;-0.085205078125;3;;
781;;;;;;;10889.6216955063;-0.0830078125;-6.0302734375E-07;-0.08270263671875;3;;
782;;;;;;;10889.8658365057;-0.08056640625;-3.8543701171875E-07;-0.08026123046875;3;;
783;;;;;;;10890.1099775051;-0.078125;-2.2003173828125E-07;-0.07781982421875;3;;
784;;;;;;;10890.3541185045;-0.07568359375;-7.32421875E-09;-0.075469970703125;3;;
785;;;;;;;10890.5982595039;-0.0732421875;1.1505126953125E-07;-0.073089599609375;3;;
786;;;;;;;10890.8424005033;-0.07080078125;2.880859375E-07;-0.07061767578125;3;;
787;;;;;;;10891.0865415026;-0.068359375;4.315185546875E-07;-0.068328857421875;3;;
788;;;;;;;10891.330682502;-0.06591796875;5.743408203125E-07;-0.06573486328125;3;;
789;;;;;;;10891.5748235014;-0.0634765625;6.951904296875E-07;-0.063323974609375;3;;
790;;;;;;;10891.8189645008;-0.06103515625;8.3740234375E-07;-0.060882568359375;3;;
791;;;;;;;10892.0631055002;-0.05859375;9.759521484375E-07;-0.05841064453125;3;;
792;;;;;;;10892.3072464996;-0.05615234375;1.1016845703125E-06;-0.056060791015625;3;;
793;;;;;;;10892.551387499;-0.0537109375;1.20361328125E-06;-0.0535888671875;3;;
794;;;;;;;10892.7955284983;-0.05126953125;1.307373046875E-06;-0.051116943359375;3;;
795;;;;;;;10893.0396694977;-0.048828125;1.40350341796875E-06;-0.0484527587890625;3;;
796;;;;;;;10893.2838104971;-0.04638671875;1.4959716796875E-06;-0.0460174560546875;3;;
797;;;;;;;10893.5279514965;-0.0439453125;1.572265625E-06;-0.0435699462890625;3;;
798;;;;;;;10893.7720924959;-0.04150390625;1.680908203125E-06;-0.0411773681640625;3;;
799;;;;;;;10894.0162334953;-0.0390625;1.76971435546875E-06;-0.03875732421875;3;;
800;;;;;;;10894.2603744946;-0.03662109375;1.8341064453125E-06;-0.0363250732421875;3;;
801;;;;;;;10894.504515494;-0.0341796875;1.947021484375E-06;-0.03375244140625;3;;
802;;;;;;;10894.7486564934;-0.03173828125;2.00042724609375E-06;-0.03145751953125;3;;
803;;;;;;;10894.9927974928;-0.029296875;2.05535888671875E-06;-0.02889404296875;3;;
804;;;;;;;10895.2369384922;-0.02685546875;2.12799072265625E-06;-0.026611328125;3;;
805;;;;;;;10895.4810794916;-0.0244140625;2.16796875E-06;-0.0241119384765625;3;;
806;;;;;;;10895.7252204909;-0.02197265625;2.24578857421875E-06;-0.0217193603515625;3;;
807;;;;;;;10895.9693614903;-0.01953125;2.29583740234375E-06;-0.019256591796875;3;;
808;;;;;;;10896.2135024897;-0.01708984375;2.3370361328125E-06;-0.016827392578125;3;;
809;;;;;;;10896.4576434891;-0.0146484375;2.40753173828125E-06;-0.014349365234375;3;;
810;;;;;;;10896.7017844885;-0.01220703125;2.45697021484375E-06;-0.0119232177734375;3;;
811;;;;;;;10896.9459254879;-0.009765625;2.4774169921875E-06;-0.00953063964843751;3;;
812;;;;;;;10897.1900664872;-0.00732421875;2.50946044921875E-06;-0.00706787109375;3;;
813;;;;;;;10897.4342074866;-0.0048828125;2.5372314453125E-06;-0.00469360351562501;3;;
814;;;;;;;10897.678348486;-0.00244140625;2.5592041015625E-06;-0.002227783203125;3;;
815;;;;;;;10897.9224894854;0;2.5732421875E-06;0.000219726562499994;3;;
816;;;;;;;10898.1666304848;0.00244140625;2.61871337890625E-06;0.0026580810546875;3;;
817;;;;;;;10898.4107714842;0.0048828125;2.63824462890625E-06;0.00510559082031251;3;;
818;;;;;;;10898.6549124835;0.00732421875;2.66754150390625E-06;0.007550048828125;3;;
819;;;;;;;10898.8990534829;0.009765625;2.679443359375E-06;0.0099609375;3;;
820;;;;;;;10899.1431944823;0.01220703125;2.69012451171875E-06;0.0123992919921875;3;;
821;;;;;;;10899.3873354817;0.009765625;2.325439453125E-06;0.01002197265625;3;;
822;;;;;;;10899.6314764811;0.00732421875;2.04071044921875E-06;0.00754394531249999;3;;
823;;;;;;;10899.8756174805;0.0048828125;1.8328857421875E-06;0.00511474609375;3;;
824;;;;;;;10900.1197584798;0.00244140625;1.644287109375E-06;0.00269470214843751;3;;
825;;;;;;;10900.3638994792;0;1.49566650390625E-06;0.0002899169921875;3;;
826;;;;;;;10900.6080404786;-0.00244140625;1.35711669921875E-06;-0.00220642089843751;3;;
827;;;;;;;10900.852181478;-0.0048828125;1.23992919921875E-06;-0.0046417236328125;3;;
828;;;;;;;10901.0963224774;-0.00732421875;1.1376953125E-06;-0.00708618164062499;3;;
829;;;;;;;10901.3404634768;-0.009765625;1.01593017578125E-06;-0.00942382812500001;3;;
830;;;;;;;10901.5846044761;-0.01220703125;9.173583984375E-07;-0.0118621826171875;3;;
831;;;;;;;;;;;;;
832;;;;;;;;;;;;;
833;;;;;;;;;;;;;
834;;;;;;;;;;;;;
835;;;;;;;;;;;;;
836;;;;;;;;;;;;;
837;;;;;;;;;;;;;
838;;;;;;;;;;;;;
839;;;;;;;;;;;;;
840;;;;;;;;;;;;;
841;;;;;;;;;;;;;
842;;;;;;;;;;;;;
843;;;;;;;;;;;;;
844;;;;;;;;;;;;;
845;;;;;;;;;;;;;
846;;;;;;;;;;;;;
847;;;;;;;;;;;;;
848;;;;;;;;;;;;;
849;;;;;;;;;;;;;
850;;;;;;;;;;;;;
851;;;;;;;;;;;;;
852;;;;;;;;;;;;;
853;;;;;;;;;;;;;
854;;;;;;;;;;;;;
855;;;;;;;;;;;;;
856;;;;;;;;;;;;;
857;;;;;;;;;;;;;
858;;;;;;;;;;;;;
859;;;;;;;;;;;;;
860;;;;;;;;;;;;;
861;;;;;;;;;;;;;
862;;;;;;;;;;;;;
863;;;;;;;;;;;;;
864;;;;;;;;;;;;;
865;;;;;;;;;;;;;
866;;;;;;;;;;;;;
867;;;;;;;;;;;;;
868;;;;;;;;;;;;;
869;;;;;;;;;;;;;
870;;;;;;;;;;;;;
871;;;;;;;;;;;;;
872;;;;;;;;;;;;;
873;;;;;;;;;;;;;
874;;;;;;;;;;;;;
875;;;;;;;;;;;;;
876;;;;;;;;;;;;;
877;;;;;;;;;;;;;
878;;;;;;;;;;;;;
879;;;;;;;;;;;;;
880;;;;;;;;;;;;;
881;;;;;;;;;;;;;
882;;;;;;;;;;;;;
883;;;;;;;;;;;;;
884;;;;;;;;;;;;;
885;;;;;;;;;;;;;
886;;;;;;;;;;;;;
887;;;;;;;;;;;;;
888;;;;;;;;;;;;;
889;;;;;;;;;;;;;
890;;;;;;;;;;;;;
891;;;;;;;;;;;;;
892;;;;;;;;;;;;;
893;;;;;;;;;;;;;
894;;;;;;;;;;;;;
895;;;;;;;;;;;;;
896;;;;;;;;;;;;;
897;;;;;;;;;;;;;
898;;;;;;;;;;;;;
899;;;;;;;;;;;;;
900;;;;;;;;;;;;;
901;;;;;;;;;;;;;
902;;;;;;;;;;;;;
903;;;;;;;;;;;;;
904;;;;;;;;;;;;;
905;;;;;;;;;;;;;
906;;;;;;;;;;;;;
907;;;;;;;;;;;;;
908;;;;;;;;;;;;;
909;;;;;;;;;;;;;
910;;;;;;;;;;;;;
911;;;;;;;;;;;;;
912;;;;;;;;;;;;;
913;;;;;;;;;;;;;
914;;;;;;;;;;;;;
915;;;;;;;;;;;;;
916;;;;;;;;;;;;;
917;;;;;;;;;;;;;
918;;;;;;;;;;;;;
919;;;;;;;;;;;;;
920;;;;;;;;;;;;;
921;;;;;;;;;;;;;
922;;;;;;;;;;;;;
923;;;;;;;;;;;;;
924;;;;;;;;;;;;;
925;;;;;;;;;;;;;
926;;;;;;;;;;;;;
927;;;;;;;;;;;;;
928;;;;;;;;;;;;;
929;;;;;;;;;;;;;
930;;;;;;;;;;;;;
931;;;;;;;;;;;;;
932;;;;;;;;;;;;;
933;;;;;;;;;;;;;
934;;;;;;;;;;;;;
935;;;;;;;;;;;;;
936;;;;;;;;;;;;;
937;;;;;;;;;;;;;
938;;;;;;;;;;;;;
939;;;;;;;;;;;;;
940;;;;;;;;;;;;;
941;;;;;;;;;;;;;
942;;;;;;;;;;;;;
943;;;;;;;;;;;;;
944;;;;;;;;;;;;;
945;;;;;;;;;;;;;
946;;;;;;;;;;;;;
947;;;;;;;;;;;;;
948;;;;;;;;;;;;;
949;;;;;;;;;;;;;
950;;;;;;;;;;;;;
951;;;;;;;;;;;;;
952;;;;;;;;;;;;;
953;;;;;;;;;;;;;
954;;;;;;;;;;;;;
955;;;;;;;;;;;;;
956;;;;;;;;;;;;;
957;;;;;;;;;;;;;
958;;;;;;;;;;;;;
959;;;;;;;;;;;;;
960;;;;;;;;;;;;;
961;;;;;;;;;;;;;
962;;;;;;;;;;;;;
963;;;;;;;;;;;;;
964;;;;;;;;;;;;;
965;;;;;;;;;;;;;
966;;;;;;;;;;;;;
967;;;;;;;;;;;;;
968;;;;;;;;;;;;;
969;;;;;;;;;;;;;
970;;;;;;;;;;;;;
971;;;;;;;;;;;;;
972;;;;;;;;;;;;;
973;;;;;;;;;;;;;
974;;;;;;;;;;;;;
975;;;;;;;;;;;;;
976;;;;;;;;;;;;;
977;;;;;;;;;;;;;
978;;;;;;;;;;;;;
979;;;;;;;;;;;;;
980;;;;;;;;;;;;;
981;;;;;;;;;;;;;
982;;;;;;;;;;;;;
983;;;;;;;;;;;;;
984;;;;;;;;;;;;;
985;;;;;;;;;;;;;
986;;;;;;;;;;;;;
987;;;;;;;;;;;;;
988;;;;;;;;;;;;;
989;;;;;;;;;;;;;
990;;;;;;;;;;;;;
991;;;;;;;;;;;;;
992;;;;;;;;;;;;;
993;;;;;;;;;;;;;
994;;;;;;;;;;;;;
995;;;;;;;;;;;;;
996;;;;;;;;;;;;;
997;;;;;;;;;;;;;
998;;;;;;;;;;;;;
999;;;;;;;;;;;;;
1000;;;;;;;;;;;;;
1001;;;;;;;;;;;;;
1002;;;;;;;;;;;;;
1003;;;;;;;;;;;;;
1004;;;;;;;;;;;;;
1005;;;;;;;;;;;;;
1006;;;;;;;;;;;;;
1007;;;;;;;;;;;;;
1008;;;;;;;;;;;;;
1009;;;;;;;;;;;;;
1010;;;;;;;;;;;;;
1011;;;;;;;;;;;;;
1012;;;;;;;;;;;;;
1013;;;;;;;;;;;;;
1014;;;;;;;;;;;;;
1015;;;;;;;;;;;;;
1016;;;;;;;;;;;;;
1017;;;;;;;;;;;;;
1018;;;;;;;;;;;;;
1019;;;;;;;;;;;;;
1020;;;;;;;;;;;;;
1021;;;;;;;;;;;;;
1022;;;;;;;;;;;;;
1023;;;;;;;;;;;;;
1024;;;;;;;;;;;;;
1025;;;;;;;;;;;;;
1026;;;;;;;;;;;;;
1027;;;;;;;;;;;;;
1028;;;;;;;;;;;;;
1029;;;;;;;;;;;;;
1030;;;;;;;;;;;;;
1031;;;;;;;;;;;;;
1032;;;;;;;;;;;;;
1033;;;;;;;;;;;;;
1034;;;;;;;;;;;;;
1035;;;;;;;;;;;;;
1036;;;;;;;;;;;;;
1037;;;;;;;;;;;;;
1038;;;;;;;;;;;;;
1039;;;;;;;;;;;;;
1040;;;;;;;;;;;;;
1041;;;;;;;;;;;;;
1042;;;;;;;;;;;;;
1043;;;;;;;;;;;;;
1044;;;;;;;;;;;;;
1045;;;;;;;;;;;;;
1046;;;;;;;;;;;;;
1047;;;;;;;;;;;;;
1048;;;;;;;;;;;;;
1049;;;;;;;;;;;;;
1050;;;;;;;;;;;;;
1051;;;;;;;;;;;;;
1052;;;;;;;;;;;;;
1053;;;;;;;;;;;;;
1054;;;;;;;;;;;;;
1055;;;;;;;;;;;;;
1056;;;;;;;;;;;;;
1057;;;;;;;;;;;;;
1058;;;;;;;;;;;;;
1059;;;;;;;;;;;;;
1060;;;;;;;;;;;;;
1061;;;;;;;;;;;;;
1062;;;;;;;;;;;;;
1063;;;;;;;;;;;;;
1064;;;;;;;;;;;;;
1065;;;;;;;;;;;;;
1066;;;;;;;;;;;;;
1067;;;;;;;;;;;;;
1068;;;;;;;;;;;;;
1069;;;;;;;;;;;;;
1070;;;;;;;;;;;;;
1071;;;;;;;;;;;;;
1072;;;;;;;;;;;;;
1073;;;;;;;;;;;;;
1074;;;;;;;;;;;;;
1075;;;;;;;;;;;;;
1076;;;;;;;;;;;;;
1077;;;;;;;;;;;;;
1078;;;;;;;;;;;;;
1079;;;;;;;;;;;;;
1080;;;;;;;;;;;;;
1081;;;;;;;;;;;;;
1082;;;;;;;;;;;;;
1083;;;;;;;;;;;;;
1084;;;;;;;;;;;;;
1085;;;;;;;;;;;;;
1086;;;;;;;;;;;;;
1087;;;;;;;;;;;;;
1088;;;;;;;;;;;;;
1089;;;;;;;;;;;;;
1090;;;;;;;;;;;;;
1091;;;;;;;;;;;;;
1092;;;;;;;;;;;;;
1093;;;;;;;;;;;;;
1094;;;;;;;;;;;;;
1095;;;;;;;;;;;;;
1096;;;;;;;;;;;;;
1097;;;;;;;;;;;;;
1098;;;;;;;;;;;;;
1099;;;;;;;;;;;;;
1100;;;;;;;;;;;;;
1101;;;;;;;;;;;;;
1102;;;;;;;;;;;;;
1103;;;;;;;;;;;;;
1104;;;;;;;;;;;;;
1105;;;;;;;;;;;;;
1106;;;;;;;;;;;;;
1107;;;;;;;;;;;;;
1108;;;;;;;;;;;;;
1109;;;;;;;;;;;;;
1110;;;;;;;;;;;;;
1111;;;;;;;;;;;;;
1112;;;;;;;;;;;;;
1113;;;;;;;;;;;;;
1114;;;;;;;;;;;;;
1115;;;;;;;;;;;;;
1116;;;;;;;;;;;;;
1117;;;;;;;;;;;;;
1118;;;;;;;;;;;;;
1119;;;;;;;;;;;;;
1120;;;;;;;;;;;;;
1121;;;;;;;;;;;;;
1122;;;;;;;;;;;;;
1123;;;;;;;;;;;;;
1124;;;;;;;;;;;;;
1125;;;;;;;;;;;;;
1126;;;;;;;;;;;;;
1127;;;;;;;;;;;;;
1128;;;;;;;;;;;;;
1129;;;;;;;;;;;;;
1130;;;;;;;;;;;;;
1131;;;;;;;;;;;;;
1132;;;;;;;;;;;;;
1133;;;;;;;;;;;;;
1134;;;;;;;;;;;;;
1135;;;;;;;;;;;;;
1136;;;;;;;;;;;;;
1137;;;;;;;;;;;;;
1138;;;;;;;;;;;;;
1139;;;;;;;;;;;;;
1140;;;;;;;;;;;;;
1141;;;;;;;;;;;;;
1142;;;;;;;;;;;;;
1143;;;;;;;;;;;;;
1144;;;;;;;;;;;;;
1145;;;;;;;;;;;;;
1146;;;;;;;;;;;;;
1147;;;;;;;;;;;;;
1148;;;;;;;;;;;;;
1149;;;;;;;;;;;;;
1150;;;;;;;;;;;;;
1151;;;;;;;;;;;;;
1152;;;;;;;;;;;;;
1153;;;;;;;;;;;;;
1154;;;;;;;;;;;;;
1155;;;;;;;;;;;;;
1156;;;;;;;;;;;;;
1157;;;;;;;;;;;;;
1158;;;;;;;;;;;;;
1159;;;;;;;;;;;;;
1160;;;;;;;;;;;;;
1161;;;;;;;;;;;;;
1162;;;;;;;;;;;;;
1163;;;;;;;;;;;;;
1164;;;;;;;;;;;;;
1165;;;;;;;;;;;;;
1166;;;;;;;;;;;;;
1167;;;;;;;;;;;;;
1168;;;;;;;;;;;;;
1169;;;;;;;;;;;;;
1170;;;;;;;;;;;;;
1171;;;;;;;;;;;;;
1172;;;;;;;;;;;;;
1173;;;;;;;;;;;;;
1174;;;;;;;;;;;;;
1175;;;;;;;;;;;;;
1176;;;;;;;;;;;;;
1177;;;;;;;;;;;;;
1178;;;;;;;;;;;;;
1179;;;;;;;;;;;;;
1180;;;;;;;;;;;;;
1181;;;;;;;;;;;;;
1182;;;;;;;;;;;;;
1183;;;;;;;;;;;;;
1184;;;;;;;;;;;;;
1185;;;;;;;;;;;;;
1186;;;;;;;;;;;;;
1187;;;;;;;;;;;;;
1188;;;;;;;;;;;;;
1189;;;;;;;;;;;;;
1190;;;;;;;;;;;;;
1191;;;;;;;;;;;;;
1192;;;;;;;;;;;;;
1193;;;;;;;;;;;;;
1194;;;;;;;;;;;;;
1195;;;;;;;;;;;;;
1196;;;;;;;;;;;;;
1197;;;;;;;;;;;;;
1198;;;;;;;;;;;;;
1199;;;;;;;;;;;;;
1200;;;;;;;;;;;;;
1201;;;;;;;;;;;;;
1202;;;;;;;;;;;;;
1203;;;;;;;;;;;;;
1204;;;;;;;;;;;;;
1205;;;;;;;;;;;;;
1206;;;;;;;;;;;;;
1207;;;;;;;;;;;;;
1208;;;;;;;;;;;;;
1209;;;;;;;;;;;;;
1210;;;;;;;;;;;;;
1211;;;;;;;;;;;;;
1212;;;;;;;;;;;;;
1213;;;;;;;;;;;;;
1214;;;;;;;;;;;;;
1215;;;;;;;;;;;;;
1216;;;;;;;;;;;;;
1217;;;;;;;;;;;;;
1218;;;;;;;;;;;;;
1219;;;;;;;;;;;;;
1220;;;;;;;;;;;;;
1221;;;;;;;;;;;;;
1222;;;;;;;;;;;;;
1223;;;;;;;;;;;;;
1224;;;;;;;;;;;;;
1225;;;;;;;;;;;;;
1226;;;;;;;;;;;;;
1227;;;;;;;;;;;;;
1228;;;;;;;;;;;;;
1229;;;;;;;;;;;;;
1230;;;;;;;;;;;;;
1231;;;;;;;;;;;;;
1232;;;;;;;;;;;;;
1233;;;;;;;;;;;;;
1234;;;;;;;;;;;;;
1235;;;;;;;;;;;;;
1236;;;;;;;;;;;;;
1237;;;;;;;;;;;;;
1238;;;;;;;;;;;;;
1239;;;;;;;;;;;;;
1240;;;;;;;;;;;;;
1241;;;;;;;;;;;;;
1242;;;;;;;;;;;;;
1243;;;;;;;;;;;;;
1244;;;;;;;;;;;;;
1245;;;;;;;;;;;;;
1246;;;;;;;;;;;;;
1247;;;;;;;;;;;;;
1248;;;;;;;;;;;;;
1249;;;;;;;;;;;;;
1250;;;;;;;;;;;;;
1251;;;;;;;;;;;;;
1252;;;;;;;;;;;;;
1253;;;;;;;;;;;;;
1254;;;;;;;;;;;;;
1255;;;;;;;;;;;;;
1256;;;;;;;;;;;;;
1257;;;;;;;;;;;;;
1258;;;;;;;;;;;;;
1259;;;;;;;;;;;;;
1260;;;;;;;;;;;;;
1261;;;;;;;;;;;;;
1262;;;;;;;;;;;;;
1263;;;;;;;;;;;;;
1264;;;;;;;;;;;;;
1265;;;;;;;;;;;;;
1266;;;;;;;;;;;;;
1267;;;;;;;;;;;;;
1268;;;;;;;;;;;;;
1269;;;;;;;;;;;;;
1270;;;;;;;;;;;;;
1271;;;;;;;;;;;;;
1272;;;;;;;;;;;;;
1273;;;;;;;;;;;;;
1274;;;;;;;;;;;;;
1275;;;;;;;;;;;;;
1276;;;;;;;;;;;;;
1277;;;;;;;;;;;;;
1278;;;;;;;;;;;;;
1279;;;;;;;;;;;;;
1280;;;;;;;;;;;;;
1281;;;;;;;;;;;;;
1282;;;;;;;;;;;;;
1283;;;;;;;;;;;;;
1284;;;;;;;;;;;;;
1285;;;;;;;;;;;;;
1286;;;;;;;;;;;;;
1287;;;;;;;;;;;;;
1288;;;;;;;;;;;;;
1289;;;;;;;;;;;;;
1290;;;;;;;;;;;;;
1291;;;;;;;;;;;;;
1292;;;;;;;;;;;;;
1293;;;;;;;;;;;;;
1294;;;;;;;;;;;;;
1295;;;;;;;;;;;;;
1296;;;;;;;;;;;;;
1297;;;;;;;;;;;;;
1298;;;;;;;;;;;;;
1299;;;;;;;;;;;;;
1300;;;;;;;;;;;;;
1301;;;;;;;;;;;;;
1302;;;;;;;;;;;;;
1303;;;;;;;;;;;;;
1304;;;;;;;;;;;;;
1305;;;;;;;;;;;;;
1306;;;;;;;;;;;;;
1307;;;;;;;;;;;;;
1308;;;;;;;;;;;;;
1309;;;;;;;;;;;;;
1310;;;;;;;;;;;;;
1311;;;;;;;;;;;;;
1312;;;;;;;;;;;;;
1313;;;;;;;;;;;;;
1314;;;;;;;;;;;;;
1315;;;;;;;;;;;;;
1316;;;;;;;;;;;;;
1317;;;;;;;;;;;;;
1318;;;;;;;;;;;;;
1319;;;;;;;;;;;;;
1320;;;;;;;;;;;;;
1321;;;;;;;;;;;;;
1322;;;;;;;;;;;;;
1323;;;;;;;;;;;;;
1324;;;;;;;;;;;;;
1325;;;;;;;;;;;;;
1326;;;;;;;;;;;;;
1327;;;;;;;;;;;;;
1328;;;;;;;;;;;;;
1329;;;;;;;;;;;;;
1330;;;;;;;;;;;;;
1331;;;;;;;;;;;;;
1332;;;;;;;;;;;;;
1333;;;;;;;;;;;;;
1334;;;;;;;;;;;;;
1335;;;;;;;;;;;;;
1336;;;;;;;;;;;;;
1337;;;;;;;;;;;;;
1338;;;;;;;;;;;;;
1339;;;;;;;;;;;;;
1340;;;;;;;;;;;;;
1341;;;;;;;;;;;;;
1342;;;;;;;;;;;;;
1343;;;;;;;;;;;;;
1344;;;;;;;;;;;;;
1345;;;;;;;;;;;;;
1346;;;;;;;;;;;;;
1347;;;;;;;;;;;;;
1348;;;;;;;;;;;;;
1349;;;;;;;;;;;;;
1350;;;;;;;;;;;;;
1351;;;;;;;;;;;;;
1352;;;;;;;;;;;;;
1353;;;;;;;;;;;;;
1354;;;;;;;;;;;;;
1355;;;;;;;;;;;;;
1356;;;;;;;;;;;;;
1357;;;;;;;;;;;;;
1358;;;;;;;;;;;;;
1359;;;;;;;;;;;;;
1360;;;;;;;;;;;;;
1361;;;;;;;;;;;;;
1362;;;;;;;;;;;;;
1363;;;;;;;;;;;;;
1364;;;;;;;;;;;;;
1365;;;;;;;;;;;;;
1366;;;;;;;;;;;;;
1367;;;;;;;;;;;;;
1368;;;;;;;;;;;;;
1369;;;;;;;;;;;;;
1370;;;;;;;;;;;;;
1371;;;;;;;;;;;;;
1372;;;;;;;;;;;;;
1373;;;;;;;;;;;;;
1374;;;;;;;;;;;;;
1375;;;;;;;;;;;;;
1376;;;;;;;;;;;;;
1377;;;;;;;;;;;;;
1378;;;;;;;;;;;;;
1379;;;;;;;;;;;;;
1380;;;;;;;;;;;;;
1381;;;;;;;;;;;;;
1382;;;;;;;;;;;;;
1383;;;;;;;;;;;;;
1384;;;;;;;;;;;;;
1385;;;;;;;;;;;;;
1386;;;;;;;;;;;;;
1387;;;;;;;;;;;;;
1388;;;;;;;;;;;;;
1389;;;;;;;;;;;;;
1390;;;;;;;;;;;;;
1391;;;;;;;;;;;;;
1392;;;;;;;;;;;;;
1393;;;;;;;;;;;;;
1394;;;;;;;;;;;;;
1395;;;;;;;;;;;;;
1396;;;;;;;;;;;;;
1397;;;;;;;;;;;;;
1398;;;;;;;;;;;;;
1399;;;;;;;;;;;;;
1400;;;;;;;;;;;;;
1401;;;;;;;;;;;;;
1402;;;;;;;;;;;;;
1403;;;;;;;;;;;;;
1404;;;;;;;;;;;;;
1405;;;;;;;;;;;;;
1406;;;;;;;;;;;;;
1407;;;;;;;;;;;;;
1408;;;;;;;;;;;;;
1409;;;;;;;;;;;;;
1410;;;;;;;;;;;;;
1411;;;;;;;;;;;;;
1412;;;;;;;;;;;;;
1413;;;;;;;;;;;;;
1414;;;;;;;;;;;;;
1415;;;;;;;;;;;;;
1416;;;;;;;;;;;;;
1417;;;;;;;;;;;;;
1418;;;;;;;;;;;;;
1419;;;;;;;;;;;;;
1420;;;;;;;;;;;;;
1421;;;;;;;;;;;;;
1422;;;;;;;;;;;;;
1423;;;;;;;;;;;;;
1424;;;;;;;;;;;;;
1425;;;;;;;;;;;;;
1426;;;;;;;;;;;;;
1427;;;;;;;;;;;;;
1428;;;;;;;;;;;;;
1429;;;;;;;;;;;;;
1430;;;;;;;;;;;;;
1431;;;;;;;;;;;;;
1432;;;;;;;;;;;;;
1433;;;;;;;;;;;;;
1434;;;;;;;;;;;;;
1435;;;;;;;;;;;;;
1436;;;;;;;;;;;;;
1437;;;;;;;;;;;;;
1438;;;;;;;;;;;;;
1439;;;;;;;;;;;;;
1440;;;;;;;;;;;;;
1441;;;;;;;;;;;;;
1442;;;;;;;;;;;;;
1443;;;;;;;;;;;;;
1444;;;;;;;;;;;;;
1445;;;;;;;;;;;;;
1446;;;;;;;;;;;;;
1447;;;;;;;;;;;;;
1448;;;;;;;;;;;;;
1449;;;;;;;;;;;;;
1450;;;;;;;;;;;;;
1451;;;;;;;;;;;;;
1452;;;;;;;;;;;;;
1453;;;;;;;;;;;;;
1454;;;;;;;;;;;;;
1455;;;;;;;;;;;;;
1456;;;;;;;;;;;;;
1457;;;;;;;;;;;;;
1458;;;;;;;;;;;;;
1459;;;;;;;;;;;;;
1460;;;;;;;;;;;;;
1461;;;;;;;;;;;;;
1462;;;;;;;;;;;;;
1463;;;;;;;;;;;;;
1464;;;;;;;;;;;;;
1465;;;;;;;;;;;;;
1466;;;;;;;;;;;;;
1467;;;;;;;;;;;;;
1468;;;;;;;;;;;;;
1469;;;;;;;;;;;;;
1470;;;;;;;;;;;;;
1471;;;;;;;;;;;;;
1472;;;;;;;;;;;;;
1473;;;;;;;;;;;;;
1474;;;;;;;;;;;;;
1475;;;;;;;;;;;;;
1476;;;;;;;;;;;;;
1477;;;;;;;;;;;;;
1478;;;;;;;;;;;;;
1479;;;;;;;;;;;;;
1480;;;;;;;;;;;;;
1481;;;;;;;;;;;;;
1482;;;;;;;;;;;;;
1483;;;;;;;;;;;;;
1484;;;;;;;;;;;;;
1485;;;;;;;;;;;;;
1486;;;;;;;;;;;;;
1487;;;;;;;;;;;;;
1488;;;;;;;;;;;;;
1489;;;;;;;;;;;;;
1490;;;;;;;;;;;;;
1491;;;;;;;;;;;;;
1492;;;;;;;;;;;;;
1493;;;;;;;;;;;;;
1494;;;;;;;;;;;;;
1495;;;;;;;;;;;;;
1496;;;;;;;;;;;;;
1497;;;;;;;;;;;;;
1498;;;;;;;;;;;;;
1499;;;;;;;;;;;;;
1500;;;;;;;;;;;;;
1501;;;;;;;;;;;;;
1502;;;;;;;;;;;;;
1503;;;;;;;;;;;;;
1504;;;;;;;;;;;;;
1505;;;;;;;;;;;;;
1506;;;;;;;;;;;;;
1507;;;;;;;;;;;;;
1508;;;;;;;;;;;;;
1509;;;;;;;;;;;;;
1510;;;;;;;;;;;;;
1511;;;;;;;;;;;;;
1512;;;;;;;;;;;;;
1513;;;;;;;;;;;;;
1514;;;;;;;;;;;;;
1515;;;;;;;;;;;;;
1516;;;;;;;;;;;;;
1517;;;;;;;;;;;;;
1518;;;;;;;;;;;;;
1519;;;;;;;;;;;;;
1520;;;;;;;;;;;;;
1521;;;;;;;;;;;;;
1522;;;;;;;;;;;;;
1523;;;;;;;;;;;;;
1524;;;;;;;;;;;;;
1525;;;;;;;;;;;;;
1526;;;;;;;;;;;;;
1527;;;;;;;;;;;;;
1528;;;;;;;;;;;;;
1529;;;;;;;;;;;;;
1530;;;;;;;;;;;;;
1531;;;;;;;;;;;;;
1532;;;;;;;;;;;;;
1533;;;;;;;;;;;;;
1534;;;;;;;;;;;;;
1535;;;;;;;;;;;;;
1536;;;;;;;;;;;;;
1537;;;;;;;;;;;;;
1538;;;;;;;;;;;;;
1539;;;;;;;;;;;;;
1540;;;;;;;;;;;;;
1541;;;;;;;;;;;;;
1542;;;;;;;;;;;;;
1543;;;;;;;;;;;;;
1544;;;;;;;;;;;;;
1545;;;;;;;;;;;;;
1546;;;;;;;;;;;;;
1547;;;;;;;;;;;;;
1548;;;;;;;;;;;;;
1549;;;;;;;;;;;;;
1550;;;;;;;;;;;;;
1551;;;;;;;;;;;;;
1552;;;;;;;;;;;;;
1553;;;;;;;;;;;;;
1554;;;;;;;;;;;;;
1555;;;;;;;;;;;;;
1556;;;;;;;;;;;;;
1557;;;;;;;;;;;;;
1558;;;;;;;;;;;;;
1559;;;;;;;;;;;;;
1560;;;;;;;;;;;;;
1561;;;;;;;;;;;;;
1562;;;;;;;;;;;;;
1563;;;;;;;;;;;;;
1564;;;;;;;;;;;;;
1565;;;;;;;;;;;;;
1566;;;;;;;;;;;;;
1567;;;;;;;;;;;;;
1568;;;;;;;;;;;;;
1569;;;;;;;;;;;;;
1570;;;;;;;;;;;;;
1571;;;;;;;;;;;;;
1572;;;;;;;;;;;;;
1573;;;;;;;;;;;;;
1574;;;;;;;;;;;;;
1575;;;;;;;;;;;;;
1576;;;;;;;;;;;;;
1577;;;;;;;;;;;;;
1578;;;;;;;;;;;;;
1579;;;;;;;;;;;;;
1580;;;;;;;;;;;;;
1581;;;;;;;;;;;;;
1582;;;;;;;;;;;;;
1583;;;;;;;;;;;;;
1584;;;;;;;;;;;;;
1585;;;;;;;;;;;;;
1586;;;;;;;;;;;;;
1587;;;;;;;;;;;;;
1588;;;;;;;;;;;;;
1589;;;;;;;;;;;;;
1590;;;;;;;;;;;;;
1591;;;;;;;;;;;;;
1592;;;;;;;;;;;;;
1593;;;;;;;;;;;;;
1594;;;;;;;;;;;;;
1595;;;;;;;;;;;;;
1596;;;;;;;;;;;;;
1597;;;;;;;;;;;;;
1598;;;;;;;;;;;;;
1599;;;;;;;;;;;;;
1600;;;;;;;;;;;;;
1601;;;;;;;;;;;;;
1602;;;;;;;;;;;;;
1603;;;;;;;;;;;;;
1604;;;;;;;;;;;;;
1605;;;;;;;;;;;;;
1606;;;;;;;;;;;;;
1607;;;;;;;;;;;;;
1608;;;;;;;;;;;;;
1609;;;;;;;;;;;;;
1610;;;;;;;;;;;;;
1611;;;;;;;;;;;;;
1612;;;;;;;;;;;;;
1613;;;;;;;;;;;;;
1614;;;;;;;;;;;;;
1615;;;;;;;;;;;;;
1616;;;;;;;;;;;;;
1617;;;;;;;;;;;;;
1618;;;;;;;;;;;;;
1619;;;;;;;;;;;;;
1620;;;;;;;;;;;;;
1621;;;;;;;;;;;;;
1622;;;;;;;;;;;;;
1623;;;;;;;;;;;;;
1624;;;;;;;;;;;;;
1625;;;;;;;;;;;;;
1626;;;;;;;;;;;;;
1627;;;;;;;;;;;;;
1628;;;;;;;;;;;;;
1629;;;;;;;;;;;;;
1630;;;;;;;;;;;;;
1631;;;;;;;;;;;;;
1632;;;;;;;;;;;;;
1633;;;;;;;;;;;;;
1634;;;;;;;;;;;;;
1635;;;;;;;;;;;;;
1636;;;;;;;;;;;;;
1637;;;;;;;;;;;;;
1638;;;;;;;;;;;;;
1639;;;;;;;;;;;;;
1640;;;;;;;;;;;;;
1641;;;;;;;;;;;;;
1642;;;;;;;;;;;;;
1643;;;;;;;;;;;;;
1644;;;;;;;;;;;;;
1645;;;;;;;;;;;;;
1646;;;;;;;;;;;;;
1647;;;;;;;;;;;;;
1648;;;;;;;;;;;;;
1649;;;;;;;;;;;;;
1650;;;;;;;;;;;;;
1651;;;;;;;;;;;;;
1652;;;;;;;;;;;;;
1653;;;;;;;;;;;;;
1654;;;;;;;;;;;;;
1655;;;;;;;;;;;;;
1656;;;;;;;;;;;;;
1657;;;;;;;;;;;;;
1658;;;;;;;;;;;;;
1659;;;;;;;;;;;;;
1660;;;;;;;;;;;;;
1661;;;;;;;;;;;;;
1662;;;;;;;;;;;;;
1663;;;;;;;;;;;;;
1664;;;;;;;;;;;;;
1665;;;;;;;;;;;;;
1666;;;;;;;;;;;;;
1667;;;;;;;;;;;;;
1668;;;;;;;;;;;;;
1669;;;;;;;;;;;;;
1670;;;;;;;;;;;;;
1671;;;;;;;;;;;;;
1672;;;;;;;;;;;;;
1673;;;;;;;;;;;;;
1674;;;;;;;;;;;;;
1675;;;;;;;;;;;;;
1676;;;;;;;;;;;;;
1677;;;;;;;;;;;;;
1678;;;;;;;;;;;;;
1679;;;;;;;;;;;;;
1680;;;;;;;;;;;;;
1681;;;;;;;;;;;;;
1682;;;;;;;;;;;;;
1683;;;;;;;;;;;;;
1684;;;;;;;;;;;;;
1685;;;;;;;;;;;;;
1686;;;;;;;;;;;;;
1687;;;;;;;;;;;;;
1688;;;;;;;;;;;;;
1689;;;;;;;;;;;;;
1690;;;;;;;;;;;;;
1691;;;;;;;;;;;;;
1692;;;;;;;;;;;;;
1693;;;;;;;;;;;;;
1694;;;;;;;;;;;;;
1695;;;;;;;;;;;;;
1696;;;;;;;;;;;;;
1697;;;;;;;;;;;;;
1698;;;;;;;;;;;;;
1699;;;;;;;;;;;;;
1700;;;;;;;;;;;;;
1701;;;;;;;;;;;;;
1702;;;;;;;;;;;;;
1703;;;;;;;;;;;;;
1704;;;;;;;;;;;;;
1705;;;;;;;;;;;;;
1706;;;;;;;;;;;;;
1707;;;;;;;;;;;;;
1708;;;;;;;;;;;;;
1709;;;;;;;;;;;;;
1710;;;;;;;;;;;;;
1711;;;;;;;;;;;;;
1712;;;;;;;;;;;;;
1713;;;;;;;;;;;;;
1714;;;;;;;;;;;;;
1715;;;;;;;;;;;;;
1716;;;;;;;;;;;;;
1717;;;;;;;;;;;;;
1718;;;;;;;;;;;;;
1719;;;;;;;;;;;;;
1720;;;;;;;;;;;;;
1721;;;;;;;;;;;;;
1722;;;;;;;;;;;;;
1723;;;;;;;;;;;;;
1724;;;;;;;;;;;;;
1725;;;;;;;;;;;;;
1726;;;;;;;;;;;;;
1727;;;;;;;;;;;;;
1728;;;;;;;;;;;;;
1729;;;;;;;;;;;;;
1730;;;;;;;;;;;;;
1731;;;;;;;;;;;;;
1732;;;;;;;;;;;;;
1733;;;;;;;;;;;;;
1734;;;;;;;;;;;;;
1735;;;;;;;;;;;;;
1736;;;;;;;;;;;;;
1737;;;;;;;;;;;;;
1738;;;;;;;;;;;;;
1739;;;;;;;;;;;;;
1740;;;;;;;;;;;;;
1741;;;;;;;;;;;;;
1742;;;;;;;;;;;;;
1743;;;;;;;;;;;;;
1744;;;;;;;;;;;;;
1745;;;;;;;;;;;;;
1746;;;;;;;;;;;;;
1747;;;;;;;;;;;;;
1748;;;;;;;;;;;;;
1749;;;;;;;;;;;;;
1750;;;;;;;;;;;;;
1751;;;;;;;;;;;;;
1752;;;;;;;;;;;;;
1753;;;;;;;;;;;;;
1754;;;;;;;;;;;;;
1755;;;;;;;;;;;;;
1756;;;;;;;;;;;;;
1757;;;;;;;;;;;;;
1758;;;;;;;;;;;;;
1759;;;;;;;;;;;;;
1760;;;;;;;;;;;;;
1761;;;;;;;;;;;;;
1762;;;;;;;;;;;;;
1763;;;;;;;;;;;;;
1764;;;;;;;;;;;;;
1765;;;;;;;;;;;;;
1766;;;;;;;;;;;;;
1767;;;;;;;;;;;;;
1768;;;;;;;;;;;;;
1769;;;;;;;;;;;;;
1770;;;;;;;;;;;;;
1771;;;;;;;;;;;;;
1772;;;;;;;;;;;;;
1773;;;;;;;;;;;;;
1774;;;;;;;;;;;;;
1775;;;;;;;;;;;;;
1776;;;;;;;;;;;;;
1777;;;;;;;;;;;;;
1778;;;;;;;;;;;;;
1779;;;;;;;;;;;;;
1780;;;;;;;;;;;;;
1781;;;;;;;;;;;;;
1782;;;;;;;;;;;;;
1783;;;;;;;;;;;;;
1784;;;;;;;;;;;;;
1785;;;;;;;;;;;;;
1786;;;;;;;;;;;;;
1787;;;;;;;;;;;;;
1788;;;;;;;;;;;;;
1789;;;;;;;;;;;;;
1790;;;;;;;;;;;;;
1791;;;;;;;;;;;;;
1792;;;;;;;;;;;;;
1793;;;;;;;;;;;;;
1794;;;;;;;;;;;;;
1795;;;;;;;;;;;;;
1796;;;;;;;;;;;;;
1797;;;;;;;;;;;;;
1798;;;;;;;;;;;;;
1799;;;;;;;;;;;;;
1800;;;;;;;;;;;;;
1801;;;;;;;;;;;;;
1802;;;;;;;;;;;;;
1803;;;;;;;;;;;;;
1804;;;;;;;;;;;;;
1805;;;;;;;;;;;;;
1806;;;;;;;;;;;;;
1807;;;;;;;;;;;;;
1808;;;;;;;;;;;;;
1809;;;;;;;;;;;;;
1810;;;;;;;;;;;;;
1811;;;;;;;;;;;;;
1812;;;;;;;;;;;;;
1813;;;;;;;;;;;;;
1814;;;;;;;;;;;;;
1815;;;;;;;;;;;;;
1816;;;;;;;;;;;;;
1817;;;;;;;;;;;;;
1818;;;;;;;;;;;;;
1819;;;;;;;;;;;;;
1820;;;;;;;;;;;;;
1821;;;;;;;;;;;;;
1822;;;;;;;;;;;;;
1823;;;;;;;;;;;;;
1824;;;;;;;;;;;;;
1825;;;;;;;;;;;;;
1826;;;;;;;;;;;;;
1827;;;;;;;;;;;;;
1828;;;;;;;;;;;;;
1829;;;;;;;;;;;;;
1830;;;;;;;;;;;;;
1831;;;;;;;;;;;;;
1832;;;;;;;;;;;;;
1833;;;;;;;;;;;;;
1834;;;;;;;;;;;;;
1835;;;;;;;;;;;;;
1836;;;;;;;;;;;;;
1837;;;;;;;;;;;;;
1838;;;;;;;;;;;;;
1839;;;;;;;;;;;;;
1840;;;;;;;;;;;;;
1841;;;;;;;;;;;;;
1842;;;;;;;;;;;;;
1843;;;;;;;;;;;;;
1844;;;;;;;;;;;;;
1845;;;;;;;;;;;;;
1846;;;;;;;;;;;;;
1847;;;;;;;;;;;;;
1848;;;;;;;;;;;;;
1849;;;;;;;;;;;;;
1850;;;;;;;;;;;;;
1851;;;;;;;;;;;;;
1852;;;;;;;;;;;;;
1853;;;;;;;;;;;;;
1854;;;;;;;;;;;;;
1855;;;;;;;;;;;;;
1856;;;;;;;;;;;;;
1857;;;;;;;;;;;;;
1858;;;;;;;;;;;;;
1859;;;;;;;;;;;;;
1860;;;;;;;;;;;;;
1861;;;;;;;;;;;;;
1862;;;;;;;;;;;;;
1863;;;;;;;;;;;;;
1864;;;;;;;;;;;;;
1865;;;;;;;;;;;;;
1866;;;;;;;;;;;;;
1867;;;;;;;;;;;;;
1868;;;;;;;;;;;;;
1869;;;;;;;;;;;;;
1870;;;;;;;;;;;;;
1871;;;;;;;;;;;;;
1872;;;;;;;;;;;;;
1873;;;;;;;;;;;;;
1874;;;;;;;;;;;;;
1875;;;;;;;;;;;;;
1876;;;;;;;;;;;;;
1877;;;;;;;;;;;;;
1878;;;;;;;;;;;;;
1879;;;;;;;;;;;;;
1880;;;;;;;;;;;;;
1881;;;;;;;;;;;;;
1882;;;;;;;;;;;;;
1883;;;;;;;;;;;;;
1884;;;;;;;;;;;;;
1885;;;;;;;;;;;;;
1886;;;;;;;;;;;;;
1887;;;;;;;;;;;;;
1888;;;;;;;;;;;;;
1889;;;;;;;;;;;;;
1890;;;;;;;;;;;;;
1891;;;;;;;;;;;;;
1892;;;;;;;;;;;;;
1893;;;;;;;;;;;;;
1894;;;;;;;;;;;;;
1895;;;;;;;;;;;;;
1896;;;;;;;;;;;;;
1897;;;;;;;;;;;;;
1898;;;;;;;;;;;;;
1899;;;;;;;;;;;;;
1900;;;;;;;;;;;;;
1901;;;;;;;;;;;;;
1902;;;;;;;;;;;;;
1903;;;;;;;;;;;;;
1904;;;;;;;;;;;;;
1905;;;;;;;;;;;;;
1906;;;;;;;;;;;;;
1907;;;;;;;;;;;;;
1908;;;;;;;;;;;;;
1909;;;;;;;;;;;;;
1910;;;;;;;;;;;;;
1911;;;;;;;;;;;;;
1912;;;;;;;;;;;;;
1913;;;;;;;;;;;;;
1914;;;;;;;;;;;;;
1915;;;;;;;;;;;;;
1916;;;;;;;;;;;;;
1917;;;;;;;;;;;;;
1918;;;;;;;;;;;;;
1919;;;;;;;;;;;;;
1920;;;;;;;;;;;;;
1921;;;;;;;;;;;;;
1922;;;;;;;;;;;;;
1923;;;;;;;;;;;;;
1924;;;;;;;;;;;;;
1925;;;;;;;;;;;;;
1926;;;;;;;;;;;;;
1927;;;;;;;;;;;;;
1928;;;;;;;;;;;;;
1929;;;;;;;;;;;;;
1930;;;;;;;;;;;;;
1931;;;;;;;;;;;;;
1932;;;;;;;;;;;;;
1933;;;;;;;;;;;;;
1934;;;;;;;;;;;;;
1935;;;;;;;;;;;;;
1936;;;;;;;;;;;;;
1937;;;;;;;;;;;;;
1938;;;;;;;;;;;;;
1939;;;;;;;;;;;;;
1940;;;;;;;;;;;;;
1941;;;;;;;;;;;;;
1942;;;;;;;;;;;;;
1943;;;;;;;;;;;;;
1944;;;;;;;;;;;;;
1945;;;;;;;;;;;;;
1946;;;;;;;;;;;;;
1947;;;;;;;;;;;;;
1948;;;;;;;;;;;;;
1949;;;;;;;;;;;;;
1950;;;;;;;;;;;;;
1951;;;;;;;;;;;;;
1952;;;;;;;;;;;;;
1953;;;;;;;;;;;;;
1954;;;;;;;;;;;;;
1955;;;;;;;;;;;;;
1956;;;;;;;;;;;;;
1957;;;;;;;;;;;;;
1958;;;;;;;;;;;;;
1959;;;;;;;;;;;;;
1960;;;;;;;;;;;;;
1961;;;;;;;;;;;;;
1962;;;;;;;;;;;;;
1963;;;;;;;;;;;;;
1964;;;;;;;;;;;;;
1965;;;;;;;;;;;;;
1966;;;;;;;;;;;;;
1967;;;;;;;;;;;;;
1968;;;;;;;;;;;;;
1969;;;;;;;;;;;;;
1970;;;;;;;;;;;;;
1971;;;;;;;;;;;;;
1972;;;;;;;;;;;;;
1973;;;;;;;;;;;;;
1974;;;;;;;;;;;;;
1975;;;;;;;;;;;;;
1976;;;;;;;;;;;;;
1977;;;;;;;;;;;;;
1978;;;;;;;;;;;;;
1979;;;;;;;;;;;;;
1980;;;;;;;;;;;;;
1981;;;;;;;;;;;;;
1982;;;;;;;;;;;;;
1983;;;;;;;;;;;;;
1984;;;;;;;;;;;;;
1985;;;;;;;;;;;;;
1986;;;;;;;;;;;;;
1987;;;;;;;;;;;;;
1988;;;;;;;;;;;;;
1989;;;;;;;;;;;;;
1990;;;;;;;;;;;;;
1991;;;;;;;;;;;;;
1992;;;;;;;;;;;;;
1993;;;;;;;;;;;;;
1994;;;;;;;;;;;;;
1995;;;;;;;;;;;;;
1996;;;;;;;;;;;;;
1997;;;;;;;;;;;;;
1998;;;;;;;;;;;;;
1999;;;;;;;;;;;;;
2000;;;;;;;;;;;;;
2001;;;;;;;;;;;;;
2002;;;;;;;;;;;;;
2003;;;;;;;;;;;;;
2004;;;;;;;;;;;;;
2005;;;;;;;;;;;;;
2006;;;;;;;;;;;;;
2007;;;;;;;;;;;;;
2008;;;;;;;;;;;;;
2009;;;;;;;;;;;;;
2010;;;;;;;;;;;;;
2011;;;;;;;;;;;;;
2012;;;;;;;;;;;;;
2013;;;;;;;;;;;;;
2014;;;;;;;;;;;;;
2015;;;;;;;;;;;;;
2016;;;;;;;;;;;;;
2017;;;;;;;;;;;;;
2018;;;;;;;;;;;;;
2019;;;;;;;;;;;;;
2020;;;;;;;;;;;;;
2021;;;;;;;;;;;;;
2022;;;;;;;;;;;;;
2023;;;;;;;;;;;;;
2024;;;;;;;;;;;;;
2025;;;;;;;;;;;;;
2026;;;;;;;;;;;;;
2027;;;;;;;;;;;;;
2028;;;;;;;;;;;;;
2029;;;;;;;;;;;;;
2030;;;;;;;;;;;;;
2031;;;;;;;;;;;;;
2032;;;;;;;;;;;;;
2033;;;;;;;;;;;;;
2034;;;;;;;;;;;;;
2035;;;;;;;;;;;;;
2036;;;;;;;;;;;;;
2037;;;;;;;;;;;;;
2038;;;;;;;;;;;;;
2039;;;;;;;;;;;;;
2040;;;;;;;;;;;;;
2041;;;;;;;;;;;;;
2042;;;;;;;;;;;;;
2043;;;;;;;;;;;;;
2044;;;;;;;;;;;;;
2045;;;;;;;;;;;;;
2046;;;;;;;;;;;;;
2047;;;;;;;;;;;;;
2048;;;;;;;;;;;;;
2049;;;;;;;;;;;;;
2050;;;;;;;;;;;;;
2051;;;;;;;;;;;;;
2052;;;;;;;;;;;;;
2053;;;;;;;;;;;;;
2054;;;;;;;;;;;;;
2055;;;;;;;;;;;;;
2056;;;;;;;;;;;;;
2057;;;;;;;;;;;;;
2058;;;;;;;;;;;;;
2059;;;;;;;;;;;;;
2060;;;;;;;;;;;;;
2061;;;;;;;;;;;;;
2062;;;;;;;;;;;;;
2063;;;;;;;;;;;;;
2064;;;;;;;;;;;;;
2065;;;;;;;;;;;;;
2066;;;;;;;;;;;;;
2067;;;;;;;;;;;;;
2068;;;;;;;;;;;;;
2069;;;;;;;;;;;;;
2070;;;;;;;;;;;;;
2071;;;;;;;;;;;;;
2072;;;;;;;;;;;;;
2073;;;;;;;;;;;;;
2074;;;;;;;;;;;;;
2075;;;;;;;;;;;;;
2076;;;;;;;;;;;;;
2077;;;;;;;;;;;;;
2078;;;;;;;;;;;;;
2079;;;;;;;;;;;;;
2080;;;;;;;;;;;;;
2081;;;;;;;;;;;;;
2082;;;;;;;;;;;;;
2083;;;;;;;;;;;;;
2084;;;;;;;;;;;;;
2085;;;;;;;;;;;;;
2086;;;;;;;;;;;;;
2087;;;;;;;;;;;;;
2088;;;;;;;;;;;;;
2089;;;;;;;;;;;;;
2090;;;;;;;;;;;;;
2091;;;;;;;;;;;;;
2092;;;;;;;;;;;;;
2093;;;;;;;;;;;;;
2094;;;;;;;;;;;;;
2095;;;;;;;;;;;;;
2096;;;;;;;;;;;;;
2097;;;;;;;;;;;;;
2098;;;;;;;;;;;;;
2099;;;;;;;;;;;;;
2100;;;;;;;;;;;;;
2101;;;;;;;;;;;;;
2102;;;;;;;;;;;;;
2103;;;;;;;;;;;;;
2104;;;;;;;;;;;;;
2105;;;;;;;;;;;;;
2106;;;;;;;;;;;;;
2107;;;;;;;;;;;;;
2108;;;;;;;;;;;;;
2109;;;;;;;;;;;;;
2110;;;;;;;;;;;;;
2111;;;;;;;;;;;;;
2112;;;;;;;;;;;;;
2113;;;;;;;;;;;;;
2114;;;;;;;;;;;;;
2115;;;;;;;;;;;;;
2116;;;;;;;;;;;;;
2117;;;;;;;;;;;;;
2118;;;;;;;;;;;;;
2119;;;;;;;;;;;;;
2120;;;;;;;;;;;;;
2121;;;;;;;;;;;;;
2122;;;;;;;;;;;;;
2123;;;;;;;;;;;;;
2124;;;;;;;;;;;;;
2125;;;;;;;;;;;;;
2126;;;;;;;;;;;;;
2127;;;;;;;;;;;;;
2128;;;;;;;;;;;;;
2129;;;;;;;;;;;;;
2130;;;;;;;;;;;;;
2131;;;;;;;;;;;;;
2132;;;;;;;;;;;;;
2133;;;;;;;;;;;;;
2134;;;;;;;;;;;;;
2135;;;;;;;;;;;;;
2136;;;;;;;;;;;;;
2137;;;;;;;;;;;;;
2138;;;;;;;;;;;;;
2139;;;;;;;;;;;;;
2140;;;;;;;;;;;;;
2141;;;;;;;;;;;;;
2142;;;;;;;;;;;;;
2143;;;;;;;;;;;;;
2144;;;;;;;;;;;;;
2145;;;;;;;;;;;;;
2146;;;;;;;;;;;;;
2147;;;;;;;;;;;;;
2148;;;;;;;;;;;;;
2149;;;;;;;;;;;;;
2150;;;;;;;;;;;;;
2151;;;;;;;;;;;;;
2152;;;;;;;;;;;;;
2153;;;;;;;;;;;;;
2154;;;;;;;;;;;;;
2155;;;;;;;;;;;;;
2156;;;;;;;;;;;;;
2157;;;;;;;;;;;;;
2158;;;;;;;;;;;;;
2159;;;;;;;;;;;;;
2160;;;;;;;;;;;;;
2161;;;;;;;;;;;;;
2162;;;;;;;;;;;;;
2163;;;;;;;;;;;;;
2164;;;;;;;;;;;;;
2165;;;;;;;;;;;;;
2166;;;;;;;;;;;;;
2167;;;;;;;;;;;;;
2168;;;;;;;;;;;;;
2169;;;;;;;;;;;;;
2170;;;;;;;;;;;;;
2171;;;;;;;;;;;;;
2172;;;;;;;;;;;;;
2173;;;;;;;;;;;;;
2174;;;;;;;;;;;;;
2175;;;;;;;;;;;;;
2176;;;;;;;;;;;;;
2177;;;;;;;;;;;;;
2178;;;;;;;;;;;;;
2179;;;;;;;;;;;;;
2180;;;;;;;;;;;;;
2181;;;;;;;;;;;;;
2182;;;;;;;;;;;;;
2183;;;;;;;;;;;;;
2184;;;;;;;;;;;;;
2185;;;;;;;;;;;;;
2186;;;;;;;;;;;;;
2187;;;;;;;;;;;;;
2188;;;;;;;;;;;;;
2189;;;;;;;;;;;;;
2190;;;;;;;;;;;;;
2191;;;;;;;;;;;;;
2192;;;;;;;;;;;;;
2193;;;;;;;;;;;;;
2194;;;;;;;;;;;;;
2195;;;;;;;;;;;;;
2196;;;;;;;;;;;;;
2197;;;;;;;;;;;;;
2198;;;;;;;;;;;;;
2199;;;;;;;;;;;;;
2200;;;;;;;;;;;;;
2201;;;;;;;;;;;;;
2202;;;;;;;;;;;;;
2203;;;;;;;;;;;;;
2204;;;;;;;;;;;;;
2205;;;;;;;;;;;;;
2206;;;;;;;;;;;;;
2207;;;;;;;;;;;;;
2208;;;;;;;;;;;;;
2209;;;;;;;;;;;;;
2210;;;;;;;;;;;;;
2211;;;;;;;;;;;;;
2212;;;;;;;;;;;;;
2213;;;;;;;;;;;;;
2214;;;;;;;;;;;;;
2215;;;;;;;;;;;;;
2216;;;;;;;;;;;;;
2217;;;;;;;;;;;;;
2218;;;;;;;;;;;;;
2219;;;;;;;;;;;;;
2220;;;;;;;;;;;;;
2221;;;;;;;;;;;;;
2222;;;;;;;;;;;;;
2223;;;;;;;;;;;;;
2224;;;;;;;;;;;;;
2225;;;;;;;;;;;;;
2226;;;;;;;;;;;;;
2227;;;;;;;;;;;;;
2228;;;;;;;;;;;;;
2229;;;;;;;;;;;;;
2230;;;;;;;;;;;;;
2231;;;;;;;;;;;;;
2232;;;;;;;;;;;;;
2233;;;;;;;;;;;;;
2234;;;;;;;;;;;;;
2235;;;;;;;;;;;;;
2236;;;;;;;;;;;;;
2237;;;;;;;;;;;;;
2238;;;;;;;;;;;;;
2239;;;;;;;;;;;;;
2240;;;;;;;;;;;;;
2241;;;;;;;;;;;;;
2242;;;;;;;;;;;;;
2243;;;;;;;;;;;;;
2244;;;;;;;;;;;;;
2245;;;;;;;;;;;;;
2246;;;;;;;;;;;;;
2247;;;;;;;;;;;;;
2248;;;;;;;;;;;;;
2249;;;;;;;;;;;;;
2250;;;;;;;;;;;;;
2251;;;;;;;;;;;;;
2252;;;;;;;;;;;;;
2253;;;;;;;;;;;;;
2254;;;;;;;;;;;;;
2255;;;;;;;;;;;;;
2256;;;;;;;;;;;;;
2257;;;;;;;;;;;;;
2258;;;;;;;;;;;;;
2259;;;;;;;;;;;;;
2260;;;;;;;;;;;;;
2261;;;;;;;;;;;;;
2262;;;;;;;;;;;;;
2263;;;;;;;;;;;;;
2264;;;;;;;;;;;;;
2265;;;;;;;;;;;;;
2266;;;;;;;;;;;;;
2267;;;;;;;;;;;;;
2268;;;;;;;;;;;;;
2269;;;;;;;;;;;;;
2270;;;;;;;;;;;;;
2271;;;;;;;;;;;;;
2272;;;;;;;;;;;;;
2273;;;;;;;;;;;;;
2274;;;;;;;;;;;;;
2275;;;;;;;;;;;;;
2276;;;;;;;;;;;;;
2277;;;;;;;;;;;;;
2278;;;;;;;;;;;;;
2279;;;;;;;;;;;;;
2280;;;;;;;;;;;;;
2281;;;;;;;;;;;;;
2282;;;;;;;;;;;;;
2283;;;;;;;;;;;;;
2284;;;;;;;;;;;;;
2285;;;;;;;;;;;;;
2286;;;;;;;;;;;;;
2287;;;;;;;;;;;;;
2288;;;;;;;;;;;;;
2289;;;;;;;;;;;;;
2290;;;;;;;;;;;;;
2291;;;;;;;;;;;;;
2292;;;;;;;;;;;;;
2293;;;;;;;;;;;;;
2294;;;;;;;;;;;;;
2295;;;;;;;;;;;;;
2296;;;;;;;;;;;;;
2297;;;;;;;;;;;;;
2298;;;;;;;;;;;;;
2299;;;;;;;;;;;;;
2300;;;;;;;;;;;;;
2301;;;;;;;;;;;;;
2302;;;;;;;;;;;;;
2303;;;;;;;;;;;;;
2304;;;;;;;;;;;;;
2305;;;;;;;;;;;;;
2306;;;;;;;;;;;;;
2307;;;;;;;;;;;;;
2308;;;;;;;;;;;;;
2309;;;;;;;;;;;;;
2310;;;;;;;;;;;;;
2311;;;;;;;;;;;;;
2312;;;;;;;;;;;;;
2313;;;;;;;;;;;;;
2314;;;;;;;;;;;;;
2315;;;;;;;;;;;;;
2316;;;;;;;;;;;;;
2317;;;;;;;;;;;;;
2318;;;;;;;;;;;;;
2319;;;;;;;;;;;;;
2320;;;;;;;;;;;;;
2321;;;;;;;;;;;;;
2322;;;;;;;;;;;;;
2323;;;;;;;;;;;;;
2324;;;;;;;;;;;;;
2325;;;;;;;;;;;;;
2326;;;;;;;;;;;;;
2327;;;;;;;;;;;;;
2328;;;;;;;;;;;;;
2329;;;;;;;;;;;;;
2330;;;;;;;;;;;;;
2331;;;;;;;;;;;;;
2332;;;;;;;;;;;;;
2333;;;;;;;;;;;;;
2334;;;;;;;;;;;;;
2335;;;;;;;;;;;;;
2336;;;;;;;;;;;;;
2337;;;;;;;;;;;;;
2338;;;;;;;;;;;;;
2339;;;;;;;;;;;;;
2340;;;;;;;;;;;;;
2341;;;;;;;;;;;;;
2342;;;;;;;;;;;;;
2343;;;;;;;;;;;;;
2344;;;;;;;;;;;;;
2345;;;;;;;;;;;;;
2346;;;;;;;;;;;;;
2347;;;;;;;;;;;;;
2348;;;;;;;;;;;;;
2349;;;;;;;;;;;;;
2350;;;;;;;;;;;;;
2351;;;;;;;;;;;;;
2352;;;;;;;;;;;;;
2353;;;;;;;;;;;;;
2354;;;;;;;;;;;;;
2355;;;;;;;;;;;;;
2356;;;;;;;;;;;;;
2357;;;;;;;;;;;;;
2358;;;;;;;;;;;;;
2359;;;;;;;;;;;;;
2360;;;;;;;;;;;;;
2361;;;;;;;;;;;;;
2362;;;;;;;;;;;;;
2363;;;;;;;;;;;;;
2364;;;;;;;;;;;;;
2365;;;;;;;;;;;;;
2366;;;;;;;;;;;;;
2367;;;;;;;;;;;;;
2368;;;;;;;;;;;;;
2369;;;;;;;;;;;;;
2370;;;;;;;;;;;;;
2371;;;;;;;;;;;;;
2372;;;;;;;;;;;;;
2373;;;;;;;;;;;;;
2374;;;;;;;;;;;;;
2375;;;;;;;;;;;;;
2376;;;;;;;;;;;;;
2377;;;;;;;;;;;;;
2378;;;;;;;;;;;;;
2379;;;;;;;;;;;;;
2380;;;;;;;;;;;;;
2381;;;;;;;;;;;;;
2382;;;;;;;;;;;;;
2383;;;;;;;;;;;;;
2384;;;;;;;;;;;;;
2385;;;;;;;;;;;;;
2386;;;;;;;;;;;;;
2387;;;;;;;;;;;;;
2388;;;;;;;;;;;;;
2389;;;;;;;;;;;;;
2390;;;;;;;;;;;;;
2391;;;;;;;;;;;;;
2392;;;;;;;;;;;;;
2393;;;;;;;;;;;;;
2394;;;;;;;;;;;;;
2395;;;;;;;;;;;;;
2396;;;;;;;;;;;;;
2397;;;;;;;;;;;;;
2398;;;;;;;;;;;;;
2399;;;;;;;;;;;;;
2400;;;;;;;;;;;;;
2401;;;;;;;;;;;;;
2402;;;;;;;;;;;;;
2403;;;;;;;;;;;;;
2404;;;;;;;;;;;;;
2405;;;;;;;;;;;;;
2406;;;;;;;;;;;;;
2407;;;;;;;;;;;;;
2408;;;;;;;;;;;;;
2409;;;;;;;;;;;;;
2410;;;;;;;;;;;;;
2411;;;;;;;;;;;;;
2412;;;;;;;;;;;;;
2413;;;;;;;;;;;;;
2414;;;;;;;;;;;;;
2415;;;;;;;;;;;;;
2416;;;;;;;;;;;;;
2417;;;;;;;;;;;;;
2418;;;;;;;;;;;;;
2419;;;;;;;;;;;;;
2420;;;;;;;;;;;;;
2421;;;;;;;;;;;;;
2422;;;;;;;;;;;;;
2423;;;;;;;;;;;;;
2424;;;;;;;;;;;;;
2425;;;;;;;;;;;;;
2426;;;;;;;;;;;;;
2427;;;;;;;;;;;;;
2428;;;;;;;;;;;;;
2429;;;;;;;;;;;;;
2430;;;;;;;;;;;;;
2431;;;;;;;;;;;;;
2432;;;;;;;;;;;;;
2433;;;;;;;;;;;;;
2434;;;;;;;;;;;;;
2435;;;;;;;;;;;;;
2436;;;;;;;;;;;;;
2437;;;;;;;;;;;;;
2438;;;;;;;;;;;;;
2439;;;;;;;;;;;;;
2440;;;;;;;;;;;;;
2441;;;;;;;;;;;;;
2442;;;;;;;;;;;;;
2443;;;;;;;;;;;;;
2444;;;;;;;;;;;;;
2445;;;;;;;;;;;;;
2446;;;;;;;;;;;;;
2447;;;;;;;;;;;;;
2448;;;;;;;;;;;;;
2449;;;;;;;;;;;;;
2450;;;;;;;;;;;;;
2451;;;;;;;;;;;;;
2452;;;;;;;;;;;;;
2453;;;;;;;;;;;;;
2454;;;;;;;;;;;;;
2455;;;;;;;;;;;;;
2456;;;;;;;;;;;;;
2457;;;;;;;;;;;;;
2458;;;;;;;;;;;;;
2459;;;;;;;;;;;;;
2460;;;;;;;;;;;;;
2461;;;;;;;;;;;;;
2462;;;;;;;;;;;;;
2463;;;;;;;;;;;;;
2464;;;;;;;;;;;;;
2465;;;;;;;;;;;;;
2466;;;;;;;;;;;;;
2467;;;;;;;;;;;;;
2468;;;;;;;;;;;;;
2469;;;;;;;;;;;;;
2470;;;;;;;;;;;;;
2471;;;;;;;;;;;;;
2472;;;;;;;;;;;;;
2473;;;;;;;;;;;;;
2474;;;;;;;;;;;;;
2475;;;;;;;;;;;;;
2476;;;;;;;;;;;;;
2477;;;;;;;;;;;;;
2478;;;;;;;;;;;;;
2479;;;;;;;;;;;;;
2480;;;;;;;;;;;;;
2481;;;;;;;;;;;;;
2482;;;;;;;;;;;;;
2483;;;;;;;;;;;;;
2484;;;;;;;;;;;;;
2485;;;;;;;;;;;;;
2486;;;;;;;;;;;;;
2487;;;;;;;;;;;;;
2488;;;;;;;;;;;;;
2489;;;;;;;;;;;;;
2490;;;;;;;;;;;;;
2491;;;;;;;;;;;;;
2492;;;;;;;;;;;;;
2493;;;;;;;;;;;;;
2494;;;;;;;;;;;;;
2495;;;;;;;;;;;;;
