
Index;Column 2 (V);Column 3 (V);Column 4 (V);Column 5 (V);Column 6 (V/s);Column 7 (V);Time (s);Potential applied (V);WE(1).Current (A);WE(1).Potential (V);Scan;Column 13 (RPM);ω (rad/s)
1;0;0.01;-1;-0.01;0.01;-0.00244;11957.8379278094;-0.0146484375;7.3516845703125E-07;-0.01434326171875;3;1400;146.607657167524
2;;;;;;;11958.0820688087;-0.01708984375;6.488037109375E-07;-0.0168121337890625;3;;
3;;;;;;;11958.3262098081;-0.01953125;6.0089111328125E-07;-0.0192718505859375;3;;
4;;;;;;;11958.5703508075;-0.02197265625;5.1422119140625E-07;-0.021630859375;3;;
5;;;;;;;11958.8144918069;-0.0244140625;4.2266845703125E-07;-0.0241363525390625;3;;
6;;;;;;;11959.0586328063;-0.02685546875;3.619384765625E-07;-0.0265106201171875;3;;
7;;;;;;;11959.3027738057;-0.029296875;2.9022216796875E-07;-0.028948974609375;3;;
8;;;;;;;11959.546914805;-0.03173828125;1.8157958984375E-07;-0.031268310546875;3;;
9;;;;;;;11959.7910558044;-0.0341796875;1.318359375E-07;-0.033941650390625;3;;
10;;;;;;;11960.0351968038;-0.03662109375;7.38525390625E-08;-0.03629150390625;3;;
11;;;;;;;11960.2793378032;-0.0390625;1.434326171875E-08;-0.038726806640625;3;;
12;;;;;;;11960.5234788026;-0.04150390625;-5.279541015625E-08;-0.041131591796875;3;;
13;;;;;;;11960.767619802;-0.0439453125;-1.0528564453125E-07;-0.043658447265625;3;;
14;;;;;;;11961.0117608013;-0.04638671875;-1.849365234375E-07;-0.045928955078125;3;;
15;;;;;;;11961.2559018007;-0.048828125;-2.4169921875E-07;-0.048577880859375;3;;
16;;;;;;;11961.5000428001;-0.05126953125;-3.1097412109375E-07;-0.051025390625;3;;
17;;;;;;;11961.7441837995;-0.0537109375;-3.6834716796875E-07;-0.0533447265625;3;;
18;;;;;;;11961.9883247989;-0.05615234375;-4.7088623046875E-07;-0.05572509765625;3;;
19;;;;;;;11962.2324657983;-0.05859375;-5.17578125E-07;-0.0582275390625;3;;
20;;;;;;;11962.4766067977;-0.06103515625;-5.8502197265625E-07;-0.060760498046875;3;;
21;;;;;;;11962.720747797;-0.0634765625;-6.6162109375E-07;-0.06304931640625;3;;
22;;;;;;;11962.9648887964;-0.06591796875;-7.4859619140625E-07;-0.0655517578125;3;;
23;;;;;;;11963.2090297958;-0.068359375;-8.3221435546875E-07;-0.0679931640625;3;;
24;;;;;;;11963.4531707952;-0.07080078125;-8.917236328125E-07;-0.070465087890625;3;;
25;;;;;;;11963.6973117946;-0.0732421875;-1.00494384765625E-06;-0.072784423828125;3;;
26;;;;;;;11963.941452794;-0.07568359375;-1.094970703125E-06;-0.075286865234375;3;;
27;;;;;;;11964.1855937933;-0.078125;-1.18316650390625E-06;-0.07769775390625;3;;
28;;;;;;;11964.4297347927;-0.08056640625;-1.307373046875E-06;-0.08013916015625;3;;
29;;;;;;;11964.6738757921;-0.0830078125;-1.39862060546875E-06;-0.082611083984375;3;;
30;;;;;;;11964.9180167915;-0.08544921875;-1.5032958984375E-06;-0.08502197265625;3;;
31;;;;;;;11965.1621577909;-0.087890625;-1.61651611328125E-06;-0.08740234375;3;;
32;;;;;;;11965.4062987903;-0.09033203125;-1.7388916015625E-06;-0.08978271484375;3;;
33;;;;;;;11965.6504397896;-0.0927734375;-1.8878173828125E-06;-0.092254638671875;3;;
34;;;;;;;11965.894580789;-0.09521484375;-2.02850341796875E-06;-0.09466552734375;3;;
35;;;;;;;11966.1387217884;-0.09765625;-2.18536376953125E-06;-0.097137451171875;3;;
36;;;;;;;11966.3828627878;-0.10009765625;-2.3321533203125E-06;-0.099578857421875;3;;
37;;;;;;;11966.6270037872;-0.1025390625;-2.50885009765625E-06;-0.101898193359375;3;;
38;;;;;;;11966.8711447866;-0.10498046875;-2.69805908203125E-06;-0.10430908203125;3;;
39;;;;;;;11967.1152857859;-0.107421875;-2.88818359375E-06;-0.106719970703125;3;;
40;;;;;;;11967.3594267853;-0.10986328125;-3.0859375E-06;-0.10919189453125;3;;
41;;;;;;;11967.6035677847;-0.1123046875;-3.311767578125E-06;-0.1119384765625;3;;
42;;;;;;;11967.8477087841;-0.11474609375;-3.56414794921875E-06;-0.114288330078125;3;;
43;;;;;;;11968.0918497835;-0.1171875;-3.79638671875E-06;-0.116790771484375;3;;
44;;;;;;;11968.3359907829;-0.11962890625;-4.071044921875E-06;-0.119232177734375;3;;
45;;;;;;;11968.5801317822;-0.1220703125;-4.345703125E-06;-0.121673583984375;3;;
46;;;;;;;11968.8242727816;-0.12451171875;-4.65087890625E-06;-0.124114990234375;3;;
47;;;;;;;11969.068413781;-0.126953125;-4.9713134765625E-06;-0.12652587890625;3;;
48;;;;;;;11969.3125547804;-0.12939453125;-5.3253173828125E-06;-0.129058837890625;3;;
49;;;;;;;11969.5566957798;-0.1318359375;-5.682373046875E-06;-0.1314697265625;3;;
50;;;;;;;11969.8008367792;-0.13427734375;-6.0791015625E-06;-0.133880615234375;3;;
51;;;;;;;11970.0449777785;-0.13671875;-6.512451171875E-06;-0.13623046875;3;;
52;;;;;;;11970.2891187779;-0.13916015625;-6.9488525390625E-06;-0.138763427734375;3;;
53;;;;;;;11970.5332597773;-0.1416015625;-7.4188232421875E-06;-0.141082763671875;3;;
54;;;;;;;11970.7774007767;-0.14404296875;-7.9254150390625E-06;-0.14361572265625;3;;
55;;;;;;;11971.0215417761;-0.146484375;-8.4381103515625E-06;-0.146026611328125;3;;
56;;;;;;;11971.2656827755;-0.14892578125;-9.04541015625E-06;-0.14837646484375;3;;
57;;;;;;;11971.5098237748;-0.1513671875;-9.637451171875E-06;-0.15087890625;3;;
58;;;;;;;11971.7539647742;-0.15380859375;-1.029052734375E-05;-0.153289794921875;3;;
59;;;;;;;11971.9981057736;-0.15625;-1.0980224609375E-05;-0.15570068359375;3;;
60;;;;;;;11972.242246773;-0.15869140625;-1.1688232421875E-05;-0.158172607421875;3;;
61;;;;;;;11972.4863877724;-0.1611328125;-1.24542236328125E-05;-0.160552978515625;3;;
62;;;;;;;11972.7305287718;-0.16357421875;-1.32720947265625E-05;-0.162994384765625;3;;
63;;;;;;;11972.9746697711;-0.166015625;-1.419677734375E-05;-0.165435791015625;3;;
64;;;;;;;11973.2188107705;-0.16845703125;-1.51214599609375E-05;-0.1678466796875;3;;
65;;;;;;;11973.4629517699;-0.1708984375;-1.61041259765625E-05;-0.170257568359375;3;;
66;;;;;;;11973.7070927693;-0.17333984375;-1.71661376953125E-05;-0.1727294921875;3;;
67;;;;;;;11973.9512337687;-0.17578125;-1.82891845703125E-05;-0.17510986328125;3;;
68;;;;;;;11974.1953747681;-0.17822265625;-1.9476318359375E-05;-0.17755126953125;3;;
69;;;;;;;11974.4395157674;-0.1806640625;-2.0721435546875E-05;-0.180084228515625;3;;
70;;;;;;;11974.6836567668;-0.18310546875;-2.20947265625E-05;-0.182403564453125;3;;
71;;;;;;;11974.9277977662;-0.185546875;-2.35198974609375E-05;-0.184844970703125;3;;
72;;;;;;;11975.1719387656;-0.18798828125;-2.50335693359375E-05;-0.18719482421875;3;;
73;;;;;;;11975.416079765;-0.1904296875;-2.6715087890625E-05;-0.1895751953125;3;;
74;;;;;;;11975.6602207644;-0.19287109375;-2.84149169921875E-05;-0.192047119140625;3;;
75;;;;;;;11975.9043617637;-0.1953125;-3.018798828125E-05;-0.194427490234375;3;;
76;;;;;;;11976.1485027631;-0.19775390625;-3.21624755859375E-05;-0.197265625;3;;
77;;;;;;;11976.3926437625;-0.2001953125;-3.42559814453125E-05;-0.199615478515625;3;;
78;;;;;;;11976.6367847619;-0.20263671875;-3.63555908203125E-05;-0.20208740234375;3;;
79;;;;;;;11976.8809257613;-0.205078125;-3.87359619140625E-05;-0.20452880859375;3;;
80;;;;;;;11977.1250667607;-0.20751953125;-4.12200927734375E-05;-0.206939697265625;3;;
81;;;;;;;11977.3692077601;-0.2099609375;-4.38720703125E-05;-0.20941162109375;3;;
82;;;;;;;11977.6133487594;-0.21240234375;-4.664306640625E-05;-0.2117919921875;3;;
83;;;;;;;11977.8574897588;-0.21484375;-4.974365234375E-05;-0.214263916015625;3;;
84;;;;;;;11978.1016307582;-0.21728515625;-5.2886962890625E-05;-0.216705322265625;3;;
85;;;;;;;11978.3457717576;-0.2197265625;-5.615234375E-05;-0.2191162109375;3;;
86;;;;;;;11978.589912757;-0.22216796875;-5.9844970703125E-05;-0.221588134765625;3;;
87;;;;;;;11978.8340537564;-0.224609375;-6.3751220703125E-05;-0.2239990234375;3;;
88;;;;;;;11979.0781947557;-0.22705078125;-6.7626953125E-05;-0.226409912109375;3;;
89;;;;;;;11979.3223357551;-0.2294921875;-7.1990966796875E-05;-0.22894287109375;3;;
90;;;;;;;11979.5664767545;-0.23193359375;-7.67822265625E-05;-0.23126220703125;3;;
91;;;;;;;11979.8106177539;-0.234375;-8.148193359375E-05;-0.23370361328125;3;;
92;;;;;;;11980.0547587533;-0.23681640625;-8.6578369140625E-05;-0.2362060546875;3;;
93;;;;;;;11980.2988997527;-0.2392578125;-9.2315673828125E-05;-0.238616943359375;3;;
94;;;;;;;11980.543040752;-0.24169921875;-9.808349609375E-05;-0.240997314453125;3;;
95;;;;;;;11980.7871817514;-0.244140625;-0.000104095458984375;-0.243438720703125;3;;
96;;;;;;;11981.0313227508;-0.24658203125;-0.000110809326171875;-0.245880126953125;3;;
97;;;;;;;11981.2754637502;-0.2490234375;-0.00011785888671875;-0.24835205078125;3;;
98;;;;;;;11981.5196047496;-0.25146484375;-0.00012493896484375;-0.250732421875;3;;
99;;;;;;;11981.763745749;-0.25390625;-0.00013275146484375;-0.253173828125;3;;
100;;;;;;;11982.0078867483;-0.25634765625;-0.000141265869140625;-0.255584716796875;3;;
101;;;;;;;11982.2520277477;-0.2587890625;-0.000149627685546875;-0.258026123046875;3;;
102;;;;;;;11982.4961687471;-0.26123046875;-0.0001585693359375;-0.26043701171875;3;;
103;;;;;;;11982.7403097465;-0.263671875;-0.0001685791015625;-0.262847900390625;3;;
104;;;;;;;11982.9844507459;-0.26611328125;-0.000178558349609375;-0.265289306640625;3;;
105;;;;;;;11983.2285917453;-0.2685546875;-0.00018865966796875;-0.267669677734375;3;;
106;;;;;;;11983.4727327446;-0.27099609375;-0.00020025634765625;-0.270172119140625;3;;
107;;;;;;;11983.716873744;-0.2734375;-0.000212005615234375;-0.2725830078125;3;;
108;;;;;;;11983.9610147434;-0.27587890625;-0.0002235107421875;-0.274932861328125;3;;
109;;;;;;;11984.2051557428;-0.2783203125;-0.00023626708984375;-0.277374267578125;3;;
110;;;;;;;11984.4492967422;-0.28076171875;-0.000249847412109375;-0.27978515625;3;;
111;;;;;;;11984.6934377416;-0.283203125;-0.000262939453125;-0.2822265625;3;;
112;;;;;;;11984.9375787409;-0.28564453125;-0.0002769775390625;-0.28466796875;3;;
113;;;;;;;11985.1817197403;-0.2880859375;-0.000292266845703125;-0.28704833984375;3;;
114;;;;;;;11985.4258607397;-0.29052734375;-0.00030718994140625;-0.2894287109375;3;;
115;;;;;;;11985.6700017391;-0.29296875;-0.000322296142578125;-0.292266845703125;3;;
116;;;;;;;11985.9141427385;-0.29541015625;-0.000338897705078125;-0.294677734375;3;;
117;;;;;;;11986.1582837379;-0.2978515625;-0.0003555908203125;-0.297149658203125;3;;
118;;;;;;;11986.4024247372;-0.30029296875;-0.0003717041015625;-0.299591064453125;3;;
119;;;;;;;11986.6465657366;-0.302734375;-0.000389251708984375;-0.301971435546875;3;;
120;;;;;;;11986.890706736;-0.30517578125;-0.00040753173828125;-0.30438232421875;3;;
121;;;;;;;11987.1348477354;-0.3076171875;-0.000424713134765625;-0.306884765625;3;;
122;;;;;;;11987.3789887348;-0.31005859375;-0.00044268798828125;-0.309326171875;3;;
123;;;;;;;11987.6231297342;-0.3125;-0.00046209716796875;-0.311737060546875;3;;
124;;;;;;;11987.8672707335;-0.31494140625;-0.000480499267578125;-0.314239501953125;3;;
125;;;;;;;11988.1114117329;-0.3173828125;-0.000498687744140625;-0.316650390625;3;;
126;;;;;;;11988.3555527323;-0.31982421875;-0.0005181884765625;-0.319061279296875;3;;
127;;;;;;;11988.5996937317;-0.322265625;-0.0005377197265625;-0.321502685546875;3;;
128;;;;;;;11988.8438347311;-0.32470703125;-0.00055572509765625;-0.323974609375;3;;
129;;;;;;;11989.0879757305;-0.3271484375;-0.00057525634765625;-0.32635498046875;3;;
130;;;;;;;11989.3321167298;-0.32958984375;-0.00059539794921875;-0.328826904296875;3;;
131;;;;;;;11989.5762577292;-0.33203125;-0.0006134033203125;-0.331207275390625;3;;
132;;;;;;;11989.8203987286;-0.33447265625;-0.00063232421875;-0.333709716796875;3;;
133;;;;;;;11990.064539728;-0.3369140625;-0.00065216064453125;-0.336090087890625;3;;
134;;;;;;;11990.3086807274;-0.33935546875;-0.00067047119140625;-0.33856201171875;3;;
135;;;;;;;11990.5528217268;-0.341796875;-0.0006878662109375;-0.341033935546875;3;;
136;;;;;;;11990.7969627261;-0.34423828125;-0.00070709228515625;-0.343414306640625;3;;
137;;;;;;;11991.0411037255;-0.3466796875;-0.00072540283203125;-0.345916748046875;3;;
138;;;;;;;11991.2852447249;-0.34912109375;-0.0007415771484375;-0.348358154296875;3;;
139;;;;;;;11991.5293857243;-0.3515625;-0.00075927734375;-0.350738525390625;3;;
140;;;;;;;11991.7735267237;-0.35400390625;-0.00077667236328125;-0.353240966796875;3;;
141;;;;;;;11992.0176677231;-0.3564453125;-0.0007916259765625;-0.355621337890625;3;;
142;;;;;;;11992.2618087224;-0.35888671875;-0.00080718994140625;-0.3580322265625;3;;
143;;;;;;;11992.5059497218;-0.361328125;-0.000823974609375;-0.360443115234375;3;;
144;;;;;;;11992.7500907212;-0.36376953125;-0.0008380126953125;-0.362945556640625;3;;
145;;;;;;;11992.9942317206;-0.3662109375;-0.0008514404296875;-0.3653564453125;3;;
146;;;;;;;11993.23837272;-0.36865234375;-0.0008660888671875;-0.367767333984375;3;;
147;;;;;;;11993.4825137194;-0.37109375;-0.00087921142578125;-0.370208740234375;3;;
148;;;;;;;11993.7266547188;-0.37353515625;-0.0008905029296875;-0.372589111328125;3;;
149;;;;;;;11993.9707957181;-0.3759765625;-0.00090240478515625;-0.3751220703125;3;;
150;;;;;;;11994.2149367175;-0.37841796875;-0.00091461181640625;-0.37750244140625;3;;
151;;;;;;;11994.4590777169;-0.380859375;-0.00092376708984375;-0.380035400390625;3;;
152;;;;;;;11994.7032187163;-0.38330078125;-0.000933837890625;-0.382354736328125;3;;
153;;;;;;;11994.9473597157;-0.3857421875;-0.00094451904296875;-0.38482666015625;3;;
154;;;;;;;11995.1915007151;-0.38818359375;-0.0009527587890625;-0.387298583984375;3;;
155;;;;;;;11995.4356417144;-0.390625;-0.0009600830078125;-0.38970947265625;3;;
156;;;;;;;11995.6797827138;-0.39306640625;-0.00096893310546875;-0.39215087890625;3;;
157;;;;;;;11995.9239237132;-0.3955078125;-0.0009765625;-0.394622802734375;3;;
158;;;;;;;11996.1680647126;-0.39794921875;-0.000982666015625;-0.397064208984375;3;;
159;;;;;;;11996.412205712;-0.400390625;-0.00098968505859375;-0.399444580078125;3;;
160;;;;;;;11996.6563467114;-0.40283203125;-0.00099700927734375;-0.40185546875;3;;
161;;;;;;;11996.9004877107;-0.4052734375;-0.00100189208984375;-0.404327392578125;3;;
162;;;;;;;11997.1446287101;-0.40771484375;-0.0010076904296875;-0.40679931640625;3;;
163;;;;;;;11997.3887697095;-0.41015625;-0.001014404296875;-0.409210205078125;3;;
164;;;;;;;11997.6329107089;-0.41259765625;-0.00101959228515625;-0.411651611328125;3;;
165;;;;;;;11997.8770517083;-0.4150390625;-0.00102386474609375;-0.41412353515625;3;;
166;;;;;;;11998.1211927077;-0.41748046875;-0.0010296630859375;-0.41650390625;3;;
167;;;;;;;11998.365333707;-0.419921875;-0.00103485107421875;-0.41900634765625;3;;
168;;;;;;;11998.6094747064;-0.42236328125;-0.0010382080078125;-0.421356201171875;3;;
169;;;;;;;11998.8536157058;-0.4248046875;-0.00104339599609375;-0.423797607421875;3;;
170;;;;;;;11999.0977567052;-0.42724609375;-0.00104827880859375;-0.42626953125;3;;
171;;;;;;;11999.3418977046;-0.4296875;-0.00105194091796875;-0.42877197265625;3;;
172;;;;;;;11999.586038704;-0.43212890625;-0.001055908203125;-0.431121826171875;3;;
173;;;;;;;11999.8301797033;-0.4345703125;-0.00106109619140625;-0.433563232421875;3;;
174;;;;;;;12000.0743207027;-0.43701171875;-0.00106414794921875;-0.43603515625;3;;
175;;;;;;;12000.3184617021;-0.439453125;-0.00106719970703125;-0.438446044921875;3;;
176;;;;;;;12000.5626027015;-0.44189453125;-0.0010723876953125;-0.440826416015625;3;;
177;;;;;;;12000.8067437009;-0.4443359375;-0.00107635498046875;-0.443328857421875;3;;
178;;;;;;;12001.0508847003;-0.44677734375;-0.0010784912109375;-0.445709228515625;3;;
179;;;;;;;12001.2950256996;-0.44921875;-0.001082763671875;-0.448150634765625;3;;
180;;;;;;;12001.539166699;-0.45166015625;-0.0010870361328125;-0.450592041015625;3;;
181;;;;;;;12001.7833076984;-0.4541015625;-0.0010888671875;-0.453094482421875;3;;
182;;;;;;;12002.0274486978;-0.45654296875;-0.00109222412109375;-0.45556640625;3;;
183;;;;;;;12002.2715896972;-0.458984375;-0.00109710693359375;-0.45794677734375;3;;
184;;;;;;;12002.5157306966;-0.46142578125;-0.00109893798828125;-0.460357666015625;3;;
185;;;;;;;12002.7598716959;-0.4638671875;-0.001099853515625;-0.46282958984375;3;;
186;;;;;;;12003.0040126953;-0.46630859375;-0.00110382080078125;-0.465301513671875;3;;
187;;;;;;;12003.2481536947;-0.46875;-0.001107177734375;-0.46771240234375;3;;
188;;;;;;;12003.4922946941;-0.47119140625;-0.00110870361328125;-0.470123291015625;3;;
189;;;;;;;12003.7364356935;-0.4736328125;-0.00111236572265625;-0.472564697265625;3;;
190;;;;;;;12003.9805766929;-0.47607421875;-0.00111572265625;-0.47503662109375;3;;
191;;;;;;;12004.2247176922;-0.478515625;-0.0011163330078125;-0.477447509765625;3;;
192;;;;;;;12004.4688586916;-0.48095703125;-0.00111846923828125;-0.479888916015625;3;;
193;;;;;;;12004.712999691;-0.4833984375;-0.00112213134765625;-0.4822998046875;3;;
194;;;;;;;12004.9571406904;-0.48583984375;-0.001124267578125;-0.48468017578125;3;;
195;;;;;;;12005.2012816898;-0.48828125;-0.00112518310546875;-0.487152099609375;3;;
196;;;;;;;12005.4454226892;-0.49072265625;-0.0011285400390625;-0.489654541015625;3;;
197;;;;;;;12005.6895636885;-0.4931640625;-0.00113006591796875;-0.4920654296875;3;;
198;;;;;;;12005.9337046879;-0.49560546875;-0.0011309814453125;-0.49456787109375;3;;
199;;;;;;;12006.1778456873;-0.498046875;-0.00113433837890625;-0.496978759765625;3;;
200;;;;;;;12006.4219866867;-0.50048828125;-0.001136474609375;-0.49932861328125;3;;
201;;;;;;;12006.6661276861;-0.5029296875;-0.00113677978515625;-0.501861572265625;3;;
202;;;;;;;12006.9102686855;-0.50537109375;-0.00113861083984375;-0.5042724609375;3;;
203;;;;;;;12007.1544096848;-0.5078125;-0.001141357421875;-0.5067138671875;3;;
204;;;;;;;12007.3985506842;-0.51025390625;-0.0011431884765625;-0.5091552734375;3;;
205;;;;;;;12007.6426916836;-0.5126953125;-0.00114349365234375;-0.511505126953125;3;;
206;;;;;;;12007.886832683;-0.51513671875;-0.0011474609375;-0.514007568359375;3;;
207;;;;;;;12008.1309736824;-0.517578125;-0.0011474609375;-0.516387939453125;3;;
208;;;;;;;12008.3751146818;-0.52001953125;-0.0011468505859375;-0.5189208984375;3;;
209;;;;;;;12008.6192556812;-0.5224609375;-0.00114990234375;-0.52130126953125;3;;
210;;;;;;;12008.8633966805;-0.52490234375;-0.001153564453125;-0.523681640625;3;;
211;;;;;;;12009.1075376799;-0.52734375;-0.00115234375;-0.52618408203125;3;;
212;;;;;;;12009.3516786793;-0.52978515625;-0.00115325927734375;-0.528564453125;3;;
213;;;;;;;12009.5958196787;-0.5322265625;-0.001156005859375;-0.53106689453125;3;;
214;;;;;;;12009.8399606781;-0.53466796875;-0.00115753173828125;-0.533477783203125;3;;
215;;;;;;;12010.0841016775;-0.537109375;-0.001156005859375;-0.53594970703125;3;;
216;;;;;;;12010.3282426768;-0.53955078125;-0.001158447265625;-0.538360595703125;3;;
217;;;;;;;12010.5723836762;-0.5419921875;-0.00115936279296875;-0.540802001953125;3;;
218;;;;;;;12010.8165246756;-0.54443359375;-0.0011590576171875;-0.54327392578125;3;;
219;;;;;;;12011.060665675;-0.546875;-0.001160888671875;-0.54571533203125;3;;
220;;;;;;;12011.3048066744;-0.54931640625;-0.0011627197265625;-0.548126220703125;3;;
221;;;;;;;12011.5489476738;-0.5517578125;-0.001162109375;-0.550506591796875;3;;
222;;;;;;;12011.7930886731;-0.55419921875;-0.00116363525390625;-0.552947998046875;3;;
223;;;;;;;12012.0372296725;-0.556640625;-0.00116546630859375;-0.555419921875;3;;
224;;;;;;;12012.2813706719;-0.55908203125;-0.0011663818359375;-0.557830810546875;3;;
225;;;;;;;12012.5255116713;-0.5615234375;-0.001165771484375;-0.560272216796875;3;;
226;;;;;;;12012.7696526707;-0.56396484375;-0.001168212890625;-0.56268310546875;3;;
227;;;;;;;12013.0137936701;-0.56640625;-0.00116943359375;-0.565185546875;3;;
228;;;;;;;12013.2579346694;-0.56884765625;-0.0011688232421875;-0.567596435546875;3;;
229;;;;;;;12013.5020756688;-0.5712890625;-0.0011700439453125;-0.57000732421875;3;;
230;;;;;;;12013.7462166682;-0.57373046875;-0.001171875;-0.57244873046875;3;;
231;;;;;;;12013.9903576676;-0.576171875;-0.00117095947265625;-0.574981689453125;3;;
232;;;;;;;12014.234498667;-0.57861328125;-0.0011700439453125;-0.577362060546875;3;;
233;;;;;;;12014.4786396664;-0.5810546875;-0.0011724853515625;-0.579742431640625;3;;
234;;;;;;;12014.7227806657;-0.58349609375;-0.0011724853515625;-0.58221435546875;3;;
235;;;;;;;12014.9669216651;-0.5859375;-0.00117340087890625;-0.584686279296875;3;;
236;;;;;;;12015.2110626645;-0.58837890625;-0.00117462158203125;-0.587158203125;3;;
237;;;;;;;12015.4552036639;-0.5908203125;-0.0011761474609375;-0.589569091796875;3;;
238;;;;;;;12015.6993446633;-0.59326171875;-0.0011737060546875;-0.59197998046875;3;;
239;;;;;;;12015.9434856627;-0.595703125;-0.00117523193359375;-0.594390869140625;3;;
240;;;;;;;12016.187626662;-0.59814453125;-0.00117645263671875;-0.5968017578125;3;;
241;;;;;;;12016.4317676614;-0.6005859375;-0.0011761474609375;-0.5992431640625;3;;
242;;;;;;;12016.6759086608;-0.60302734375;-0.00117645263671875;-0.601715087890625;3;;
243;;;;;;;12016.9200496602;-0.60546875;-0.0011785888671875;-0.6041259765625;3;;
244;;;;;;;12017.1641906596;-0.60791015625;-0.00117828369140625;-0.60662841796875;3;;
245;;;;;;;12017.408331659;-0.6103515625;-0.00117706298828125;-0.609039306640625;3;;
246;;;;;;;12017.6524726583;-0.61279296875;-0.001177978515625;-0.61151123046875;3;;
247;;;;;;;12017.8966136577;-0.615234375;-0.0011798095703125;-0.6138916015625;3;;
248;;;;;;;12018.1407546571;-0.61767578125;-0.0011785888671875;-0.6163330078125;3;;
249;;;;;;;12018.3848956565;-0.6201171875;-0.00117828369140625;-0.6187744140625;3;;
250;;;;;;;12018.6290366559;-0.62255859375;-0.00118072509765625;-0.621185302734375;3;;
251;;;;;;;12018.8731776553;-0.625;-0.00117889404296875;-0.6236572265625;3;;
252;;;;;;;12019.1173186546;-0.62744140625;-0.00117889404296875;-0.626129150390625;3;;
253;;;;;;;12019.361459654;-0.6298828125;-0.00118194580078125;-0.628570556640625;3;;
254;;;;;;;12019.6056006534;-0.63232421875;-0.0011798095703125;-0.6309814453125;3;;
255;;;;;;;12019.8497416528;-0.634765625;-0.00117889404296875;-0.63348388671875;3;;
256;;;;;;;12020.0938826522;-0.63720703125;-0.00117919921875;-0.63580322265625;3;;
257;;;;;;;12020.3380236516;-0.6396484375;-0.001180419921875;-0.638336181640625;3;;
258;;;;;;;12020.5821646509;-0.64208984375;-0.001177978515625;-0.640777587890625;3;;
259;;;;;;;12020.8263056503;-0.64453125;-0.001177978515625;-0.6431884765625;3;;
260;;;;;;;12021.0704466497;-0.64697265625;-0.00117889404296875;-0.645599365234375;3;;
261;;;;;;;12021.3145876491;-0.6494140625;-0.001177978515625;-0.6480712890625;3;;
262;;;;;;;12021.5587286485;-0.65185546875;-0.00117645263671875;-0.650482177734375;3;;
263;;;;;;;12021.8028696479;-0.654296875;-0.00117828369140625;-0.6529541015625;3;;
264;;;;;;;12022.0470106472;-0.65673828125;-0.0011761474609375;-0.6553955078125;3;;
265;;;;;;;12022.2911516466;-0.6591796875;-0.00117431640625;-0.65789794921875;3;;
266;;;;;;;12022.535292646;-0.66162109375;-0.00117767333984375;-0.6602783203125;3;;
267;;;;;;;12022.7794336454;-0.6640625;-0.0011761474609375;-0.662750244140625;3;;
268;;;;;;;12023.0235746448;-0.66650390625;-0.00117523193359375;-0.6651611328125;3;;
269;;;;;;;12023.2677156442;-0.6689453125;-0.0011749267578125;-0.6676025390625;3;;
270;;;;;;;12023.5118566436;-0.67138671875;-0.00117645263671875;-0.670013427734375;3;;
271;;;;;;;12023.7559976429;-0.673828125;-0.0011737060546875;-0.6724853515625;3;;
272;;;;;;;12024.0001386423;-0.67626953125;-0.0011724853515625;-0.6749267578125;3;;
273;;;;;;;12024.2442796417;-0.6787109375;-0.00117340087890625;-0.677398681640625;3;;
274;;;;;;;12024.4884206411;-0.68115234375;-0.00117340087890625;-0.679779052734375;3;;
275;;;;;;;12024.7325616405;-0.68359375;-0.00117218017578125;-0.6822509765625;3;;
276;;;;;;;12024.9767026399;-0.68603515625;-0.0011724853515625;-0.68463134765625;3;;
277;;;;;;;12025.2208436392;-0.6884765625;-0.00117279052734375;-0.687103271484375;3;;
278;;;;;;;12025.4649846386;-0.69091796875;-0.00117034912109375;-0.689544677734375;3;;
279;;;;;;;12025.709125638;-0.693359375;-0.00116912841796875;-0.692047119140625;3;;
280;;;;;;;12025.9532666374;-0.69580078125;-0.00117034912109375;-0.6944580078125;3;;
281;;;;;;;12026.1974076368;-0.6982421875;-0.00117034912109375;-0.6968994140625;3;;
282;;;;;;;12026.4415486362;-0.70068359375;-0.00116729736328125;-0.6993408203125;3;;
283;;;;;;;12026.6856896355;-0.703125;-0.00116790771484375;-0.701812744140625;3;;
284;;;;;;;12026.9298306349;-0.70556640625;-0.00116668701171875;-0.704254150390625;3;;
285;;;;;;;12027.1739716343;-0.7080078125;-0.00116455078125;-0.7066650390625;3;;
286;;;;;;;12027.4181126337;-0.71044921875;-0.00116668701171875;-0.709136962890625;3;;
287;;;;;;;12027.6622536331;-0.712890625;-0.001165771484375;-0.711578369140625;3;;
288;;;;;;;12027.9063946325;-0.71533203125;-0.00116455078125;-0.714019775390625;3;;
289;;;;;;;12028.1505356318;-0.7177734375;-0.00116485595703125;-0.7164306640625;3;;
290;;;;;;;12028.3946766312;-0.72021484375;-0.00116302490234375;-0.718902587890625;3;;
291;;;;;;;12028.6388176306;-0.72265625;-0.001162109375;-0.72125244140625;3;;
292;;;;;;;12028.88295863;-0.72509765625;-0.00116241455078125;-0.723663330078125;3;;
293;;;;;;;12029.1270996294;-0.7275390625;-0.00116119384765625;-0.7261962890625;3;;
294;;;;;;;12029.3712406288;-0.72998046875;-0.00116058349609375;-0.7286376953125;3;;
295;;;;;;;12029.6153816281;-0.732421875;-0.00115966796875;-0.731048583984375;3;;
296;;;;;;;12029.8595226275;-0.73486328125;-0.0011590576171875;-0.7335205078125;3;;
297;;;;;;;12030.1036636269;-0.7373046875;-0.00115936279296875;-0.7359619140625;3;;
298;;;;;;;12030.3478046263;-0.73974609375;-0.0011572265625;-0.738433837890625;3;;
299;;;;;;;12030.5919456257;-0.7421875;-0.0011566162109375;-0.740814208984375;3;;
300;;;;;;;12030.8360866251;-0.74462890625;-0.00115753173828125;-0.743255615234375;3;;
301;;;;;;;12031.0802276244;-0.7470703125;-0.00115478515625;-0.7457275390625;3;;
302;;;;;;;12031.3243686238;-0.74951171875;-0.00115386962890625;-0.7481689453125;3;;
303;;;;;;;12031.5685096232;-0.751953125;-0.00115509033203125;-0.75103759765625;3;;
304;;;;;;;12031.8126506226;-0.75439453125;-0.00115386962890625;-0.75347900390625;3;;
305;;;;;;;12032.056791622;-0.7568359375;-0.00115234375;-0.7562255859375;3;;
306;;;;;;;12032.3009326214;-0.75927734375;-0.00115142822265625;-0.75836181640625;3;;
307;;;;;;;12032.5450736207;-0.76171875;-0.00115264892578125;-0.76080322265625;3;;
308;;;;;;;12032.7892146201;-0.76416015625;-0.001151123046875;-0.762939453125;3;;
309;;;;;;;12033.0333556195;-0.7666015625;-0.00115081787109375;-0.76568603515625;3;;
310;;;;;;;12033.2774966189;-0.76904296875;-0.00114990234375;-0.76904296875;3;;
311;;;;;;;12033.5216376183;-0.771484375;-0.0011492919921875;-0.7708740234375;3;;
312;;;;;;;12033.7657786177;-0.77392578125;-0.00114837646484375;-0.77301025390625;3;;
313;;;;;;;12034.009919617;-0.7763671875;-0.00115020751953125;-0.77545166015625;3;;
314;;;;;;;12034.2540606164;-0.77880859375;-0.00114837646484375;-0.7781982421875;3;;
315;;;;;;;12034.4982016158;-0.78125;-0.00114654541015625;-0.78033447265625;3;;
316;;;;;;;12034.7423426152;-0.78369140625;-0.00114837646484375;-0.78277587890625;3;;
317;;;;;;;12034.9864836146;-0.7861328125;-0.0011480712890625;-0.7855224609375;3;;
318;;;;;;;12035.230624614;-0.78857421875;-0.00114776611328125;-0.787353515625;3;;
319;;;;;;;12035.4747656133;-0.791015625;-0.00114501953125;-0.7904052734375;3;;
320;;;;;;;12035.7189066127;-0.79345703125;-0.00114837646484375;-0.79254150390625;3;;
321;;;;;;;12035.9630476121;-0.7958984375;-0.00114501953125;-0.7952880859375;3;;
322;;;;;;;12036.2071886115;-0.79833984375;-0.00114471435546875;-0.79803466796875;3;;
323;;;;;;;12036.4513296109;-0.80078125;-0.00114654541015625;-0.799560546875;3;;
324;;;;;;;12036.6954706103;-0.80322265625;-0.0011444091796875;-0.802001953125;3;;
325;;;;;;;12036.9396116096;-0.8056640625;-0.00114410400390625;-0.80474853515625;3;;
326;;;;;;;12037.183752609;-0.80810546875;-0.001146240234375;-0.8074951171875;3;;
327;;;;;;;12037.4278936084;-0.810546875;-0.0011456298828125;-0.81024169921875;3;;
328;;;;;;;12037.6720346078;-0.81298828125;-0.00114288330078125;-0.81207275390625;3;;
329;;;;;;;12037.9161756072;-0.8154296875;-0.00114532470703125;-0.81512451171875;3;;
330;;;;;;;12038.1603166066;-0.81787109375;-0.00114471435546875;-0.8172607421875;3;;
331;;;;;;;12038.404457606;-0.8203125;-0.00114410400390625;-0.81939697265625;3;;
332;;;;;;;12038.6485986053;-0.82275390625;-0.00114471435546875;-0.8221435546875;3;;
333;;;;;;;12038.8927396047;-0.8251953125;-0.00114654541015625;-0.8245849609375;3;;
334;;;;;;;12039.1368806041;-0.82763671875;-0.0011456298828125;-0.82672119140625;3;;
335;;;;;;;12039.3810216035;-0.830078125;-0.00114410400390625;-0.8294677734375;3;;
336;;;;;;;12039.6251626029;-0.83251953125;-0.00114532470703125;-0.83160400390625;3;;
337;;;;;;;12039.8693036023;-0.8349609375;-0.00114654541015625;-0.833740234375;3;;
338;;;;;;;12040.1134446016;-0.83740234375;-0.0011456298828125;-0.83709716796875;3;;
339;;;;;;;12040.357585601;-0.83984375;-0.00114532470703125;-0.83953857421875;3;;
340;;;;;;;12040.6017266004;-0.84228515625;-0.0011468505859375;-0.84136962890625;3;;
341;;;;;;;12040.8458675998;-0.8447265625;-0.00114593505859375;-0.8441162109375;3;;
342;;;;;;;12041.0900085992;-0.84716796875;-0.0011468505859375;-0.8465576171875;3;;
343;;;;;;;12041.3341495986;-0.849609375;-0.0011492919921875;-0.8489990234375;3;;
344;;;;;;;12041.5782905979;-0.85205078125;-0.00114990234375;-0.850830078125;3;;
345;;;;;;;12041.8224315973;-0.8544921875;-0.0011474609375;-0.8538818359375;3;;
346;;;;;;;12042.0665725967;-0.85693359375;-0.0011505126953125;-0.85662841796875;3;;
347;;;;;;;12042.3107135961;-0.859375;-0.00115081787109375;-0.85906982421875;3;;
348;;;;;;;12042.5548545955;-0.86181640625;-0.00114898681640625;-0.86090087890625;3;;
349;;;;;;;12042.7989955949;-0.8642578125;-0.00115264892578125;-0.86334228515625;3;;
350;;;;;;;12043.0431365942;-0.86669921875;-0.00115325927734375;-0.86578369140625;3;;
351;;;;;;;12043.2872775936;-0.869140625;-0.00115142822265625;-0.8685302734375;3;;
352;;;;;;;12043.531418593;-0.87158203125;-0.00115234375;-0.8709716796875;3;;
353;;;;;;;12043.7755595924;-0.8740234375;-0.00115478515625;-0.872802734375;3;;
354;;;;;;;12044.0197005918;-0.87646484375;-0.0011553955078125;-0.87554931640625;3;;
355;;;;;;;12044.2638415912;-0.87890625;-0.0011541748046875;-0.8782958984375;3;;
356;;;;;;;12044.5079825905;-0.88134765625;-0.0011566162109375;-0.8807373046875;3;;
357;;;;;;;12044.7521235899;-0.8837890625;-0.00115875244140625;-0.88348388671875;3;;
358;;;;;;;12044.9962645893;-0.88623046875;-0.00115753173828125;-0.885009765625;3;;
359;;;;;;;12045.2404055887;-0.888671875;-0.00115875244140625;-0.888671875;3;;
360;;;;;;;12045.4845465881;-0.89111328125;-0.00116058349609375;-0.89080810546875;3;;
361;;;;;;;12045.7286875875;-0.8935546875;-0.001160888671875;-0.8929443359375;3;;
362;;;;;;;12045.9728285868;-0.89599609375;-0.00116119384765625;-0.8953857421875;3;;
363;;;;;;;12046.2169695862;-0.8984375;-0.001163330078125;-0.89752197265625;3;;
364;;;;;;;12046.4611105856;-0.90087890625;-0.00116363525390625;-0.9002685546875;3;;
365;;;;;;;12046.705251585;-0.9033203125;-0.00116241455078125;-0.9027099609375;3;;
366;;;;;;;12046.9493925844;-0.90576171875;-0.0011639404296875;-0.90484619140625;3;;
367;;;;;;;12047.1935335838;-0.908203125;-0.0011639404296875;-0.90728759765625;3;;
368;;;;;;;12047.4376745831;-0.91064453125;-0.00116485595703125;-0.91033935546875;3;;
369;;;;;;;12047.6818155825;-0.9130859375;-0.0011663818359375;-0.91278076171875;3;;
370;;;;;;;12047.9259565819;-0.91552734375;-0.0011688232421875;-0.9149169921875;3;;
371;;;;;;;12048.1700975813;-0.91796875;-0.00116790771484375;-0.9173583984375;3;;
372;;;;;;;12048.4142385807;-0.92041015625;-0.0011676025390625;-0.91949462890625;3;;
373;;;;;;;12048.6583795801;-0.9228515625;-0.0011700439453125;-0.92254638671875;3;;
374;;;;;;;12048.9025205794;-0.92529296875;-0.00117095947265625;-0.9246826171875;3;;
375;;;;;;;12049.1466615788;-0.927734375;-0.00116973876953125;-0.9271240234375;3;;
376;;;;;;;12049.3908025782;-0.93017578125;-0.001171875;-0.92987060546875;3;;
377;;;;;;;12049.6349435776;-0.9326171875;-0.0011724853515625;-0.9326171875;3;;
378;;;;;;;12049.879084577;-0.93505859375;-0.0011712646484375;-0.9344482421875;3;;
379;;;;;;;12050.1232255764;-0.9375;-0.00117095947265625;-0.93658447265625;3;;
380;;;;;;;12050.3673665757;-0.93994140625;-0.00117431640625;-0.9393310546875;3;;
381;;;;;;;12050.6115075751;-0.9423828125;-0.00117340087890625;-0.94146728515625;3;;
382;;;;;;;12050.8556485745;-0.94482421875;-0.00117431640625;-0.9442138671875;3;;
383;;;;;;;12051.0997895739;-0.947265625;-0.001175537109375;-0.9466552734375;3;;
384;;;;;;;12051.3439305733;-0.94970703125;-0.00117645263671875;-0.9490966796875;3;;
385;;;;;;;12051.5880715727;-0.9521484375;-0.00117431640625;-0.9515380859375;3;;
386;;;;;;;12051.832212572;-0.95458984375;-0.00117584228515625;-0.95428466796875;3;;
387;;;;;;;12052.0763535714;-0.95703125;-0.00117828369140625;-0.95672607421875;3;;
388;;;;;;;12052.3204945708;-0.95947265625;-0.00117706298828125;-0.95855712890625;3;;
389;;;;;;;12052.5646355702;-0.9619140625;-0.00117706298828125;-0.9613037109375;3;;
390;;;;;;;12052.8087765696;-0.96435546875;-0.00117889404296875;-0.96405029296875;3;;
391;;;;;;;12053.052917569;-0.966796875;-0.00117767333984375;-0.96710205078125;3;;
392;;;;;;;12053.2970585684;-0.96923828125;-0.0011785888671875;-0.96771240234375;3;;
393;;;;;;;12053.5411995677;-0.9716796875;-0.00118011474609375;-0.97076416015625;3;;
394;;;;;;;12053.7853405671;-0.97412109375;-0.00117950439453125;-0.9735107421875;3;;
395;;;;;;;12054.0294815665;-0.9765625;-0.00117889404296875;-0.97564697265625;3;;
396;;;;;;;12054.2736225659;-0.97900390625;-0.00118255615234375;-0.9783935546875;3;;
397;;;;;;;12054.5177635653;-0.9814453125;-0.0011834716796875;-0.98052978515625;3;;
398;;;;;;;12054.7619045647;-0.98388671875;-0.00118316650390625;-0.98297119140625;3;;
399;;;;;;;12055.006045564;-0.986328125;-0.001182861328125;-0.9857177734375;3;;
400;;;;;;;12055.2501865634;-0.98876953125;-0.001185302734375;-0.9881591796875;3;;
401;;;;;;;12055.4943275628;-0.9912109375;-0.00118377685546875;-0.99029541015625;3;;
402;;;;;;;12055.7384685622;-0.99365234375;-0.0011834716796875;-0.99273681640625;3;;
403;;;;;;;12055.9826095616;-0.99609375;-0.0011859130859375;-0.99517822265625;3;;
404;;;;;;;12056.226750561;-0.99853515625;-0.0011865234375;-0.99761962890625;3;;
405;;;;;;;12056.4708915603;-1.0009765625;-0.001185302734375;-1.0003662109375;3;;
406;;;;;;;12056.7150325597;-0.99853515625;-0.00118072509765625;-0.99822998046875;3;;
407;;;;;;;12056.9591735591;-0.99609375;-0.001175537109375;-0.9954833984375;3;;
408;;;;;;;12057.2033145585;-0.99365234375;-0.0011688232421875;-0.9930419921875;3;;
409;;;;;;;12057.4474555579;-0.9912109375;-0.0011669921875;-0.9906005859375;3;;
410;;;;;;;12057.6915965573;-0.98876953125;-0.001160888671875;-0.987548828125;3;;
411;;;;;;;12057.9357375566;-0.986328125;-0.0011578369140625;-0.98541259765625;3;;
412;;;;;;;12058.179878556;-0.98388671875;-0.001153564453125;-0.9832763671875;3;;
413;;;;;;;12058.4240195554;-0.9814453125;-0.00115325927734375;-0.980224609375;3;;
414;;;;;;;12058.6681605548;-0.97900390625;-0.00114959716796875;-0.977783203125;3;;
415;;;;;;;12058.9123015542;-0.9765625;-0.00114654541015625;-0.97625732421875;3;;
416;;;;;;;12059.1564425536;-0.97412109375;-0.00114501953125;-0.9735107421875;3;;
417;;;;;;;12059.4005835529;-0.9716796875;-0.00114349365234375;-0.9710693359375;3;;
418;;;;;;;12059.6447245523;-0.96923828125;-0.00113922119140625;-0.9686279296875;3;;
419;;;;;;;12059.8888655517;-0.966796875;-0.00113677978515625;-0.965576171875;3;;
420;;;;;;;12060.1330065511;-0.96435546875;-0.00113616943359375;-0.96405029296875;3;;
421;;;;;;;12060.3771475505;-0.9619140625;-0.00113372802734375;-0.9613037109375;3;;
422;;;;;;;12060.6212885499;-0.95947265625;-0.001131591796875;-0.9588623046875;3;;
423;;;;;;;12060.8654295492;-0.95703125;-0.0011309814453125;-0.95611572265625;3;;
424;;;;;;;12061.1095705486;-0.95458984375;-0.00112762451171875;-0.95428466796875;3;;
425;;;;;;;12061.353711548;-0.9521484375;-0.00112518310546875;-0.95184326171875;3;;
426;;;;;;;12061.5978525474;-0.94970703125;-0.00112518310546875;-0.94940185546875;3;;
427;;;;;;;12061.8419935468;-0.947265625;-0.0011236572265625;-0.9466552734375;3;;
428;;;;;;;12062.0861345462;-0.94482421875;-0.001121826171875;-0.94390869140625;3;;
429;;;;;;;12062.3302755455;-0.9423828125;-0.00112030029296875;-0.94207763671875;3;;
430;;;;;;;12062.5744165449;-0.93994140625;-0.00111785888671875;-0.93994140625;3;;
431;;;;;;;12062.8185575443;-0.9375;-0.0011175537109375;-0.93658447265625;3;;
432;;;;;;;12063.0626985437;-0.93505859375;-0.00111419677734375;-0.9344482421875;3;;
433;;;;;;;12063.3068395431;-0.9326171875;-0.001114501953125;-0.93231201171875;3;;
434;;;;;;;12063.5509805425;-0.93017578125;-0.00111419677734375;-0.92926025390625;3;;
435;;;;;;;12063.7951215418;-0.927734375;-0.001112060546875;-0.927734375;3;;
436;;;;;;;12064.0392625412;-0.92529296875;-0.00111053466796875;-0.92498779296875;3;;
437;;;;;;;12064.2834035406;-0.9228515625;-0.00110992431640625;-0.9222412109375;3;;
438;;;;;;;12064.52754454;-0.92041015625;-0.001107177734375;-0.9197998046875;3;;
439;;;;;;;12064.7716855394;-0.91796875;-0.00110748291015625;-0.9173583984375;3;;
440;;;;;;;12065.0158265388;-0.91552734375;-0.00110687255859375;-0.9149169921875;3;;
441;;;;;;;12065.2599675381;-0.9130859375;-0.00110504150390625;-0.9124755859375;3;;
442;;;;;;;12065.5041085375;-0.91064453125;-0.0011029052734375;-0.91033935546875;3;;
443;;;;;;;12065.7482495369;-0.908203125;-0.0011029052734375;-0.90728759765625;3;;
444;;;;;;;12065.9923905363;-0.90576171875;-0.00110260009765625;-0.90484619140625;3;;
445;;;;;;;12066.2365315357;-0.9033203125;-0.0011004638671875;-0.9027099609375;3;;
446;;;;;;;12066.4806725351;-0.90087890625;-0.0011004638671875;-0.9002685546875;3;;
447;;;;;;;12066.7248135344;-0.8984375;-0.00109954833984375;-0.8984375;3;;
448;;;;;;;12066.9689545338;-0.89599609375;-0.00109771728515625;-0.89569091796875;3;;
449;;;;;;;12067.2130955332;-0.8935546875;-0.0010968017578125;-0.89324951171875;3;;
450;;;;;;;12067.4572365326;-0.89111328125;-0.0010968017578125;-0.89019775390625;3;;
451;;;;;;;12067.701377532;-0.888671875;-0.00109466552734375;-0.88836669921875;3;;
452;;;;;;;12067.9455185314;-0.88623046875;-0.00109222412109375;-0.88592529296875;3;;
453;;;;;;;12068.1896595308;-0.8837890625;-0.0010943603515625;-0.88287353515625;3;;
454;;;;;;;12068.4338005301;-0.88134765625;-0.00109283447265625;-0.8807373046875;3;;
455;;;;;;;12068.6779415295;-0.87890625;-0.00109130859375;-0.87799072265625;3;;
456;;;;;;;12068.9220825289;-0.87646484375;-0.00109161376953125;-0.87554931640625;3;;
457;;;;;;;12069.1662235283;-0.8740234375;-0.00109283447265625;-0.87310791015625;3;;
458;;;;;;;12069.4103645277;-0.87158203125;-0.00108978271484375;-0.8709716796875;3;;
459;;;;;;;12069.6545055271;-0.869140625;-0.00108917236328125;-0.86822509765625;3;;
460;;;;;;;12069.8986465264;-0.86669921875;-0.0010894775390625;-0.8660888671875;3;;
461;;;;;;;12070.1427875258;-0.8642578125;-0.001090087890625;-0.8636474609375;3;;
462;;;;;;;12070.3869285252;-0.86181640625;-0.0010882568359375;-0.86090087890625;3;;
463;;;;;;;12070.6310695246;-0.859375;-0.001087646484375;-0.858154296875;3;;
464;;;;;;;12070.875210524;-0.85693359375;-0.0010888671875;-0.85601806640625;3;;
465;;;;;;;12071.1193515234;-0.8544921875;-0.0010870361328125;-0.8538818359375;3;;
466;;;;;;;12071.3634925227;-0.85205078125;-0.001087646484375;-0.85113525390625;3;;
467;;;;;;;12071.6076335221;-0.849609375;-0.00108856201171875;-0.8489990234375;3;;
468;;;;;;;12071.8517745215;-0.84716796875;-0.00108734130859375;-0.8465576171875;3;;
469;;;;;;;12072.0959155209;-0.8447265625;-0.00108551025390625;-0.84442138671875;3;;
470;;;;;;;12072.3400565203;-0.84228515625;-0.00108795166015625;-0.8416748046875;3;;
471;;;;;;;12072.5841975197;-0.83984375;-0.001087646484375;-0.8392333984375;3;;
472;;;;;;;12072.828338519;-0.83740234375;-0.00108612060546875;-0.8367919921875;3;;
473;;;;;;;12073.0724795184;-0.8349609375;-0.00108856201171875;-0.8343505859375;3;;
474;;;;;;;12073.3166205178;-0.83251953125;-0.00108795166015625;-0.83160400390625;3;;
475;;;;;;;12073.5607615172;-0.830078125;-0.00108551025390625;-0.8294677734375;3;;
476;;;;;;;12073.8049025166;-0.82763671875;-0.00108856201171875;-0.82672119140625;3;;
477;;;;;;;12074.049043516;-0.8251953125;-0.0010882568359375;-0.8245849609375;3;;
478;;;;;;;12074.2931845153;-0.82275390625;-0.00108856201171875;-0.82183837890625;3;;
479;;;;;;;12074.5373255147;-0.8203125;-0.0010870361328125;-0.8197021484375;3;;
480;;;;;;;12074.7814665141;-0.81787109375;-0.0010894775390625;-0.8172607421875;3;;
481;;;;;;;12075.0256075135;-0.8154296875;-0.0010906982421875;-0.81512451171875;3;;
482;;;;;;;12075.2697485129;-0.81298828125;-0.001090087890625;-0.81207275390625;3;;
483;;;;;;;12075.5138895123;-0.810546875;-0.0010906982421875;-0.8099365234375;3;;
484;;;;;;;12075.7580305116;-0.80810546875;-0.001092529296875;-0.8074951171875;3;;
485;;;;;;;12076.002171511;-0.8056640625;-0.00109100341796875;-0.8050537109375;3;;
486;;;;;;;12076.2463125104;-0.80322265625;-0.00109375;-0.8026123046875;3;;
487;;;;;;;12076.4904535098;-0.80078125;-0.0010943603515625;-0.799560546875;3;;
488;;;;;;;12076.7345945092;-0.79833984375;-0.00109375;-0.79742431640625;3;;
489;;;;;;;12076.9787355086;-0.7958984375;-0.001094970703125;-0.794677734375;3;;
490;;;;;;;12077.2228765079;-0.79345703125;-0.00109710693359375;-0.7928466796875;3;;
491;;;;;;;12077.4670175073;-0.791015625;-0.00109710693359375;-0.79010009765625;3;;
492;;;;;;;12077.7111585067;-0.78857421875;-0.0010968017578125;-0.7879638671875;3;;
493;;;;;;;12077.9552995061;-0.7861328125;-0.00109893798828125;-0.7855224609375;3;;
494;;;;;;;12078.1994405055;-0.78369140625;-0.00110015869140625;-0.78277587890625;3;;
495;;;;;;;12078.4435815049;-0.78125;-0.001099853515625;-0.78033447265625;3;;
496;;;;;;;12078.6877225042;-0.77880859375;-0.001102294921875;-0.7781982421875;3;;
497;;;;;;;12078.9318635036;-0.7763671875;-0.0011053466796875;-0.77606201171875;3;;
498;;;;;;;12079.176004503;-0.77392578125;-0.001104736328125;-0.77392578125;3;;
499;;;;;;;12079.4201455024;-0.771484375;-0.0011053466796875;-0.77056884765625;3;;
500;;;;;;;12079.6642865018;-0.76904296875;-0.00110931396484375;-0.76873779296875;3;;
501;;;;;;;12079.9084275012;-0.7666015625;-0.00110992431640625;-0.7659912109375;3;;
502;;;;;;;12080.1525685005;-0.76416015625;-0.0011077880859375;-0.76385498046875;3;;
503;;;;;;;12080.3967094999;-0.76171875;-0.00111236572265625;-0.7611083984375;3;;
504;;;;;;;12080.6408504993;-0.75927734375;-0.0011138916015625;-0.75836181640625;3;;
505;;;;;;;12080.8849914987;-0.7568359375;-0.00111236572265625;-0.7562255859375;3;;
506;;;;;;;12081.1291324981;-0.75439453125;-0.00111358642578125;-0.7537841796875;3;;
507;;;;;;;12081.3732734975;-0.751953125;-0.00111785888671875;-0.7513427734375;3;;
508;;;;;;;12081.6174144968;-0.74951171875;-0.00112274169921875;-0.7481689453125;3;;
509;;;;;;;12081.8615554962;-0.7470703125;-0.001123046875;-0.745697021484375;3;;
510;;;;;;;12082.1056964956;-0.74462890625;-0.00112579345703125;-0.7432861328125;3;;
511;;;;;;;12082.349837495;-0.7421875;-0.00112701416015625;-0.7408447265625;3;;
512;;;;;;;12082.5939784944;-0.73974609375;-0.001126708984375;-0.738372802734375;3;;
513;;;;;;;12082.8381194938;-0.7373046875;-0.00112945556640625;-0.735992431640625;3;;
514;;;;;;;12083.0822604931;-0.73486328125;-0.001131591796875;-0.7335205078125;3;;
515;;;;;;;12083.3264014925;-0.732421875;-0.001131591796875;-0.7310791015625;3;;
516;;;;;;;12083.5705424919;-0.72998046875;-0.00113433837890625;-0.728607177734375;3;;
517;;;;;;;12083.8146834913;-0.7275390625;-0.00113616943359375;-0.726165771484375;3;;
518;;;;;;;12084.0588244907;-0.72509765625;-0.001136474609375;-0.72369384765625;3;;
519;;;;;;;12084.3029654901;-0.72265625;-0.001136474609375;-0.721343994140625;3;;
520;;;;;;;12084.5471064895;-0.72021484375;-0.00113983154296875;-0.718902587890625;3;;
521;;;;;;;12084.7912474888;-0.7177734375;-0.00114166259765625;-0.7164306640625;3;;
522;;;;;;;12085.0353884882;-0.71533203125;-0.00114166259765625;-0.713958740234375;3;;
523;;;;;;;12085.2795294876;-0.712890625;-0.00114410400390625;-0.71160888671875;3;;
524;;;;;;;12085.523670487;-0.71044921875;-0.001146240234375;-0.709075927734375;3;;
525;;;;;;;12085.7678114864;-0.7080078125;-0.00114654541015625;-0.706634521484375;3;;
526;;;;;;;12086.0119524858;-0.70556640625;-0.001148681640625;-0.7042236328125;3;;
527;;;;;;;12086.2560934851;-0.703125;-0.00114959716796875;-0.701751708984375;3;;
528;;;;;;;12086.5002344845;-0.70068359375;-0.00115081787109375;-0.6993408203125;3;;
529;;;;;;;12086.7443754839;-0.6982421875;-0.001148681640625;-0.696868896484375;3;;
530;;;;;;;12086.9885164833;-0.69580078125;-0.001153564453125;-0.694427490234375;3;;
531;;;;;;;12087.2326574827;-0.693359375;-0.00115509033203125;-0.692047119140625;3;;
532;;;;;;;12087.4767984821;-0.69091796875;-0.0011553955078125;-0.689544677734375;3;;
533;;;;;;;12087.7209394814;-0.6884765625;-0.00115570068359375;-0.6871337890625;3;;
534;;;;;;;12087.9650804808;-0.68603515625;-0.00115936279296875;-0.6846923828125;3;;
535;;;;;;;12088.2092214802;-0.68359375;-0.00115997314453125;-0.682281494140625;3;;
536;;;;;;;12088.4533624796;-0.68115234375;-0.001158447265625;-0.679840087890625;3;;
537;;;;;;;12088.697503479;-0.6787109375;-0.0011614990234375;-0.6773681640625;3;;
538;;;;;;;12088.9416444784;-0.67626953125;-0.001160888671875;-0.674896240234375;3;;
539;;;;;;;12089.1857854777;-0.673828125;-0.00115966796875;-0.6724853515625;3;;
540;;;;;;;12089.4299264771;-0.67138671875;-0.00116363525390625;-0.670074462890625;3;;
541;;;;;;;12089.6740674765;-0.6689453125;-0.001163330078125;-0.6676025390625;3;;
542;;;;;;;12089.9182084759;-0.66650390625;-0.00116241455078125;-0.6651611328125;3;;
543;;;;;;;12090.1623494753;-0.6640625;-0.00116455078125;-0.6627197265625;3;;
544;;;;;;;12090.4064904747;-0.66162109375;-0.00116607666015625;-0.660308837890625;3;;
545;;;;;;;12090.650631474;-0.6591796875;-0.00116424560546875;-0.657867431640625;3;;
546;;;;;;;12090.8947724734;-0.65673828125;-0.00116455078125;-0.65545654296875;3;;
547;;;;;;;12091.1389134728;-0.654296875;-0.00116729736328125;-0.6529541015625;3;;
548;;;;;;;12091.3830544722;-0.65185546875;-0.0011651611328125;-0.6505126953125;3;;
549;;;;;;;12091.6271954716;-0.6494140625;-0.00116363525390625;-0.64813232421875;3;;
550;;;;;;;12091.871336471;-0.64697265625;-0.00116607666015625;-0.64569091796875;3;;
551;;;;;;;12092.1154774703;-0.64453125;-0.00116607666015625;-0.6431884765625;3;;
552;;;;;;;12092.3596184697;-0.64208984375;-0.00116546630859375;-0.640716552734375;3;;
553;;;;;;;12092.6037594691;-0.6396484375;-0.00116912841796875;-0.6383056640625;3;;
554;;;;;;;12092.8479004685;-0.63720703125;-0.0011676025390625;-0.6358642578125;3;;
555;;;;;;;12093.0920414679;-0.634765625;-0.001165771484375;-0.633453369140625;3;;
556;;;;;;;12093.3361824673;-0.63232421875;-0.00116668701171875;-0.630950927734375;3;;
557;;;;;;;12093.5803234666;-0.6298828125;-0.00116790771484375;-0.628509521484375;3;;
558;;;;;;;12093.824464466;-0.62744140625;-0.00116607666015625;-0.626068115234375;3;;
559;;;;;;;12094.0686054654;-0.625;-0.00116546630859375;-0.62371826171875;3;;
560;;;;;;;12094.3127464648;-0.62255859375;-0.00116668701171875;-0.621246337890625;3;;
561;;;;;;;12094.5568874642;-0.6201171875;-0.00116485595703125;-0.6187744140625;3;;
562;;;;;;;12094.8010284636;-0.61767578125;-0.00116363525390625;-0.616363525390625;3;;
563;;;;;;;12095.0451694629;-0.615234375;-0.0011651611328125;-0.613922119140625;3;;
564;;;;;;;12095.2893104623;-0.61279296875;-0.00116546630859375;-0.611480712890625;3;;
565;;;;;;;12095.5334514617;-0.6103515625;-0.00116363525390625;-0.608978271484375;3;;
566;;;;;;;12095.7775924611;-0.60791015625;-0.00116455078125;-0.60662841796875;3;;
567;;;;;;;12096.0217334605;-0.60546875;-0.0011639404296875;-0.6041259765625;3;;
568;;;;;;;12096.2658744599;-0.60302734375;-0.0011614990234375;-0.601715087890625;3;;
569;;;;;;;12096.5100154592;-0.6005859375;-0.0011602783203125;-0.599273681640625;3;;
570;;;;;;;12096.7541564586;-0.59814453125;-0.001162109375;-0.596832275390625;3;;
571;;;;;;;12096.998297458;-0.595703125;-0.001160888671875;-0.594451904296875;3;;
572;;;;;;;12097.2424384574;-0.59326171875;-0.00115966796875;-0.592010498046875;3;;
573;;;;;;;12097.4865794568;-0.5908203125;-0.0011590576171875;-0.589508056640625;3;;
574;;;;;;;12097.7307204562;-0.58837890625;-0.00115814208984375;-0.587158203125;3;;
575;;;;;;;12097.9748614556;-0.5859375;-0.00115570068359375;-0.584716796875;3;;
576;;;;;;;12098.2190024549;-0.58349609375;-0.00115509033203125;-0.582305908203125;3;;
577;;;;;;;12098.4631434543;-0.5810546875;-0.0011566162109375;-0.579803466796875;3;;
578;;;;;;;12098.7072844537;-0.57861328125;-0.00115570068359375;-0.577362060546875;3;;
579;;;;;;;12098.9514254531;-0.576171875;-0.001153564453125;-0.574981689453125;3;;
580;;;;;;;12099.1955664525;-0.57373046875;-0.00115570068359375;-0.572509765625;3;;
581;;;;;;;12099.4397074519;-0.5712890625;-0.00115325927734375;-0.570098876953125;3;;
582;;;;;;;12099.6838484512;-0.56884765625;-0.0011505126953125;-0.56768798828125;3;;
583;;;;;;;12099.9279894506;-0.56640625;-0.001151123046875;-0.565216064453125;3;;
584;;;;;;;12100.17213045;-0.56396484375;-0.00115020751953125;-0.562713623046875;3;;
585;;;;;;;12100.4162714494;-0.5615234375;-0.0011474609375;-0.560333251953125;3;;
586;;;;;;;12100.6604124488;-0.55908203125;-0.00114715576171875;-0.557952880859375;3;;
587;;;;;;;12100.9045534482;-0.556640625;-0.001148681640625;-0.555389404296875;3;;
588;;;;;;;12101.1486944475;-0.55419921875;-0.00114593505859375;-0.552978515625;3;;
589;;;;;;;12101.3928354469;-0.5517578125;-0.001143798828125;-0.55059814453125;3;;
590;;;;;;;12101.6369764463;-0.54931640625;-0.00114471435546875;-0.548095703125;3;;
591;;;;;;;12101.8811174457;-0.546875;-0.00114410400390625;-0.54571533203125;3;;
592;;;;;;;12102.1252584451;-0.54443359375;-0.0011419677734375;-0.543212890625;3;;
593;;;;;;;12102.3693994445;-0.5419921875;-0.00114044189453125;-0.540771484375;3;;
594;;;;;;;12102.6135404438;-0.53955078125;-0.00114105224609375;-0.538360595703125;3;;
595;;;;;;;12102.8576814432;-0.537109375;-0.00113922119140625;-0.535919189453125;3;;
596;;;;;;;12103.1018224426;-0.53466796875;-0.0011370849609375;-0.533477783203125;3;;
597;;;;;;;12103.345963442;-0.5322265625;-0.0011383056640625;-0.531005859375;3;;
598;;;;;;;12103.5901044414;-0.52978515625;-0.00113616943359375;-0.528594970703125;3;;
599;;;;;;;12103.8342454408;-0.52734375;-0.00113311767578125;-0.526153564453125;3;;
600;;;;;;;12104.0783864401;-0.52490234375;-0.0011334228515625;-0.52374267578125;3;;
601;;;;;;;12104.3225274395;-0.5224609375;-0.00113250732421875;-0.521331787109375;3;;
602;;;;;;;12104.5666684389;-0.52001953125;-0.00112884521484375;-0.518829345703125;3;;
603;;;;;;;12104.8108094383;-0.517578125;-0.00112884521484375;-0.51641845703125;3;;
604;;;;;;;12105.0549504377;-0.51513671875;-0.00112823486328125;-0.514007568359375;3;;
605;;;;;;;12105.2990914371;-0.5126953125;-0.00112640380859375;-0.511566162109375;3;;
606;;;;;;;12105.5432324364;-0.51025390625;-0.0011236572265625;-0.509124755859375;3;;
607;;;;;;;12105.7873734358;-0.5078125;-0.0011248779296875;-0.5067138671875;3;;
608;;;;;;;12106.0315144352;-0.50537109375;-0.00112274169921875;-0.5042724609375;3;;
609;;;;;;;12106.2756554346;-0.5029296875;-0.00112060546875;-0.5018310546875;3;;
610;;;;;;;12106.519796434;-0.50048828125;-0.00111846923828125;-0.499359130859375;3;;
611;;;;;;;12106.7639374334;-0.498046875;-0.0011175537109375;-0.496917724609375;3;;
612;;;;;;;12107.0080784327;-0.49560546875;-0.00111480712890625;-0.4945068359375;3;;
613;;;;;;;12107.2522194321;-0.4931640625;-0.0011138916015625;-0.492095947265625;3;;
614;;;;;;;12107.4963604315;-0.49072265625;-0.00111297607421875;-0.4896240234375;3;;
615;;;;;;;12107.7405014309;-0.48828125;-0.00110931396484375;-0.487213134765625;3;;
616;;;;;;;12107.9846424303;-0.48583984375;-0.0011065673828125;-0.4847412109375;3;;
617;;;;;;;12108.2287834297;-0.4833984375;-0.00110595703125;-0.4822998046875;3;;
618;;;;;;;12108.472924429;-0.48095703125;-0.00110382080078125;-0.4798583984375;3;;
619;;;;;;;12108.7170654284;-0.478515625;-0.00110015869140625;-0.4774169921875;3;;
620;;;;;;;12108.9612064278;-0.47607421875;-0.0010992431640625;-0.475006103515625;3;;
621;;;;;;;12109.2053474272;-0.4736328125;-0.00109771728515625;-0.4725341796875;3;;
622;;;;;;;12109.4494884266;-0.47119140625;-0.00109405517578125;-0.470123291015625;3;;
623;;;;;;;12109.693629426;-0.46875;-0.00109222412109375;-0.46771240234375;3;;
624;;;;;;;12109.9377704253;-0.46630859375;-0.00109039306640625;-0.465301513671875;3;;
625;;;;;;;12110.1819114247;-0.4638671875;-0.00108612060546875;-0.462860107421875;3;;
626;;;;;;;12110.4260524241;-0.46142578125;-0.00108306884765625;-0.460357666015625;3;;
627;;;;;;;12110.6701934235;-0.458984375;-0.00108154296875;-0.457916259765625;3;;
628;;;;;;;12110.9143344229;-0.45654296875;-0.00107818603515625;-0.45550537109375;3;;
629;;;;;;;12111.1584754223;-0.4541015625;-0.00107421875;-0.453033447265625;3;;
630;;;;;;;12111.4026164216;-0.45166015625;-0.00107147216796875;-0.450653076171875;3;;
631;;;;;;;12111.646757421;-0.44921875;-0.00106842041015625;-0.44818115234375;3;;
632;;;;;;;12111.8908984204;-0.44677734375;-0.00106353759765625;-0.44573974609375;3;;
633;;;;;;;12112.1350394198;-0.4443359375;-0.0010601806640625;-0.44329833984375;3;;
634;;;;;;;12112.3791804192;-0.44189453125;-0.00105712890625;-0.44091796875;3;;
635;;;;;;;12112.6233214186;-0.439453125;-0.00105255126953125;-0.438446044921875;3;;
636;;;;;;;12112.8674624179;-0.43701171875;-0.00104766845703125;-0.436065673828125;3;;
637;;;;;;;12113.1116034173;-0.4345703125;-0.0010443115234375;-0.433563232421875;3;;
638;;;;;;;12113.3557444167;-0.43212890625;-0.00103973388671875;-0.431121826171875;3;;
639;;;;;;;12113.5998854161;-0.4296875;-0.00103363037109375;-0.428741455078125;3;;
640;;;;;;;12113.8440264155;-0.42724609375;-0.00102935791015625;-0.42626953125;3;;
641;;;;;;;12114.0881674149;-0.4248046875;-0.00102447509765625;-0.423797607421875;3;;
642;;;;;;;12114.3323084143;-0.42236328125;-0.0010174560546875;-0.42132568359375;3;;
643;;;;;;;12114.5764494136;-0.419921875;-0.001011962890625;-0.4189453125;3;;
644;;;;;;;12114.820590413;-0.41748046875;-0.00100738525390625;-0.416534423828125;3;;
645;;;;;;;12115.0647314124;-0.4150390625;-0.000999755859375;-0.4140625;3;;
646;;;;;;;12115.3088724118;-0.41259765625;-0.00099273681640625;-0.411651611328125;3;;
647;;;;;;;12115.5530134112;-0.41015625;-0.0009869384765625;-0.409210205078125;3;;
648;;;;;;;12115.7971544106;-0.40771484375;-0.00097930908203125;-0.406768798828125;3;;
649;;;;;;;12116.0412954099;-0.4052734375;-0.00097076416015625;-0.404327392578125;3;;
650;;;;;;;12116.2854364093;-0.40283203125;-0.0009637451171875;-0.40185546875;3;;
651;;;;;;;12116.5295774087;-0.400390625;-0.000955810546875;-0.399444580078125;3;;
652;;;;;;;12116.7737184081;-0.39794921875;-0.00094635009765625;-0.397003173828125;3;;
653;;;;;;;12117.0178594075;-0.3955078125;-0.00093780517578125;-0.39459228515625;3;;
654;;;;;;;12117.2620004069;-0.39306640625;-0.00092987060546875;-0.392242431640625;3;;
655;;;;;;;12117.5061414062;-0.390625;-0.00092010498046875;-0.3897705078125;3;;
656;;;;;;;12117.7502824056;-0.38818359375;-0.00090972900390625;-0.387298583984375;3;;
657;;;;;;;12117.994423405;-0.3857421875;-0.00090057373046875;-0.3848876953125;3;;
658;;;;;;;12118.2385644044;-0.38330078125;-0.00089019775390625;-0.38238525390625;3;;
659;;;;;;;12118.4827054038;-0.380859375;-0.00087860107421875;-0.37994384765625;3;;
660;;;;;;;12118.7268464032;-0.37841796875;-0.00086822509765625;-0.377532958984375;3;;
661;;;;;;;12118.9709874025;-0.3759765625;-0.00085784912109375;-0.375091552734375;3;;
662;;;;;;;12119.2151284019;-0.37353515625;-0.00084503173828125;-0.372650146484375;3;;
663;;;;;;;12119.4592694013;-0.37109375;-0.00083343505859375;-0.37017822265625;3;;
664;;;;;;;12119.7034104007;-0.36865234375;-0.0008221435546875;-0.3677978515625;3;;
665;;;;;;;12119.9475514001;-0.3662109375;-0.0008087158203125;-0.3653564453125;3;;
666;;;;;;;12120.1916923995;-0.36376953125;-0.00079498291015625;-0.362945556640625;3;;
667;;;;;;;12120.4358333988;-0.361328125;-0.0007830810546875;-0.360443115234375;3;;
668;;;;;;;12120.6799743982;-0.35888671875;-0.0007696533203125;-0.3580322265625;3;;
669;;;;;;;12120.9241153976;-0.3564453125;-0.0007550048828125;-0.35565185546875;3;;
670;;;;;;;12121.168256397;-0.35400390625;-0.0007415771484375;-0.353179931640625;3;;
671;;;;;;;12121.4123973964;-0.3515625;-0.0007281494140625;-0.35076904296875;3;;
672;;;;;;;12121.6565383958;-0.34912109375;-0.000712890625;-0.348297119140625;3;;
673;;;;;;;12121.9006793951;-0.3466796875;-0.00069793701171875;-0.345916748046875;3;;
674;;;;;;;12122.1448203945;-0.34423828125;-0.0006842041015625;-0.343414306640625;3;;
675;;;;;;;12122.3889613939;-0.341796875;-0.0006689453125;-0.340972900390625;3;;
676;;;;;;;12122.6331023933;-0.33935546875;-0.00065277099609375;-0.338623046875;3;;
677;;;;;;;12122.8772433927;-0.3369140625;-0.000638427734375;-0.33612060546875;3;;
678;;;;;;;12123.1213843921;-0.33447265625;-0.00062347412109375;-0.33367919921875;3;;
679;;;;;;;12123.3655253914;-0.33203125;-0.00060699462890625;-0.331298828125;3;;
680;;;;;;;12123.6096663908;-0.32958984375;-0.00059173583984375;-0.328826904296875;3;;
681;;;;;;;12123.8538073902;-0.3271484375;-0.0005767822265625;-0.326385498046875;3;;
682;;;;;;;12124.0979483896;-0.32470703125;-0.000560302734375;-0.323883056640625;3;;
683;;;;;;;12124.342089389;-0.322265625;-0.00054443359375;-0.321533203125;3;;
684;;;;;;;12124.5862303884;-0.31982421875;-0.00052978515625;-0.319091796875;3;;
685;;;;;;;12124.8303713877;-0.3173828125;-0.000513916015625;-0.316650390625;3;;
686;;;;;;;12125.0745123871;-0.31494140625;-0.000497894287109375;-0.314208984375;3;;
687;;;;;;;12125.3186533865;-0.3125;-0.000483001708984375;-0.311767578125;3;;
688;;;;;;;12125.5627943859;-0.31005859375;-0.00046783447265625;-0.309326171875;3;;
689;;;;;;;12125.8069353853;-0.3076171875;-0.000451690673828125;-0.306915283203125;3;;
690;;;;;;;12126.0510763847;-0.30517578125;-0.000436859130859375;-0.304443359375;3;;
691;;;;;;;12126.295217384;-0.302734375;-0.00042254638671875;-0.302001953125;3;;
692;;;;;;;12126.5393583834;-0.30029296875;-0.00040704345703125;-0.299560546875;3;;
693;;;;;;;12126.7834993828;-0.2978515625;-0.000392181396484375;-0.29718017578125;3;;
694;;;;;;;12127.0276403822;-0.29541015625;-0.000378570556640625;-0.294677734375;3;;
695;;;;;;;12127.2717813816;-0.29296875;-0.0003641357421875;-0.29229736328125;3;;
696;;;;;;;12127.515922381;-0.29052734375;-0.000349609375;-0.289764404296875;3;;
697;;;;;;;12127.7600633803;-0.2880859375;-0.00033648681640625;-0.287384033203125;3;;
698;;;;;;;12128.0042043797;-0.28564453125;-0.00032330322265625;-0.284912109375;3;;
699;;;;;;;12128.2483453791;-0.283203125;-0.00030950927734375;-0.282470703125;3;;
700;;;;;;;12128.4924863785;-0.28076171875;-0.000296844482421875;-0.280120849609375;3;;
701;;;;;;;12128.7366273779;-0.2783203125;-0.000284942626953125;-0.277679443359375;3;;
702;;;;;;;12128.9807683773;-0.27587890625;-0.000272064208984375;-0.275177001953125;3;;
703;;;;;;;12129.2249093767;-0.2734375;-0.00026019287109375;-0.2728271484375;3;;
704;;;;;;;12129.469050376;-0.27099609375;-0.0002491455078125;-0.270355224609375;3;;
705;;;;;;;12129.7131913754;-0.2685546875;-0.00023785400390625;-0.267913818359375;3;;
706;;;;;;;12129.9573323748;-0.26611328125;-0.000226470947265625;-0.26544189453125;3;;
707;;;;;;;12130.2014733742;-0.263671875;-0.000216278076171875;-0.2630615234375;3;;
708;;;;;;;12130.4456143736;-0.26123046875;-0.000206298828125;-0.26055908203125;3;;
709;;;;;;;12130.689755373;-0.2587890625;-0.000195953369140625;-0.2581787109375;3;;
710;;;;;;;12130.9338963723;-0.25634765625;-0.00018646240234375;-0.255706787109375;3;;
711;;;;;;;12131.1780373717;-0.25390625;-0.000177734375;-0.253265380859375;3;;
712;;;;;;;12131.4221783711;-0.25146484375;-0.00016864013671875;-0.250823974609375;3;;
713;;;;;;;12131.6663193705;-0.2490234375;-0.00015997314453125;-0.2484130859375;3;;
714;;;;;;;12131.9104603699;-0.24658203125;-0.00015216064453125;-0.246002197265625;3;;
715;;;;;;;12132.1546013693;-0.244140625;-0.000144317626953125;-0.2435302734375;3;;
716;;;;;;;12132.3987423686;-0.24169921875;-0.000136505126953125;-0.24114990234375;3;;
717;;;;;;;12132.642883368;-0.2392578125;-0.000129547119140625;-0.2386474609375;3;;
718;;;;;;;12132.8870243674;-0.23681640625;-0.00012286376953125;-0.236236572265625;3;;
719;;;;;;;12133.1311653668;-0.234375;-0.000115966796875;-0.23382568359375;3;;
720;;;;;;;12133.3753063662;-0.23193359375;-0.0001097412109375;-0.2313232421875;3;;
721;;;;;;;12133.6194473656;-0.2294921875;-0.00010400390625;-0.22894287109375;3;;
722;;;;;;;12133.8635883649;-0.22705078125;-9.814453125E-05;-0.22650146484375;3;;
723;;;;;;;12134.1077293643;-0.224609375;-9.2559814453125E-05;-0.224029541015625;3;;
724;;;;;;;12134.3518703637;-0.22216796875;-8.758544921875E-05;-0.2215576171875;3;;
725;;;;;;;12134.5960113631;-0.2197265625;-8.2672119140625E-05;-0.219146728515625;3;;
726;;;;;;;12134.8401523625;-0.21728515625;-7.781982421875E-05;-0.216766357421875;3;;
727;;;;;;;12135.0842933619;-0.21484375;-7.3516845703125E-05;-0.2142333984375;3;;
728;;;;;;;12135.3284343612;-0.21240234375;-6.939697265625E-05;-0.211822509765625;3;;
729;;;;;;;12135.5725753606;-0.2099609375;-6.5216064453125E-05;-0.209381103515625;3;;
730;;;;;;;12135.81671636;-0.20751953125;-6.146240234375E-05;-0.2069091796875;3;;
731;;;;;;;12136.0608573594;-0.205078125;-5.8074951171875E-05;-0.204498291015625;3;;
732;;;;;;;12136.3049983588;-0.20263671875;-5.450439453125E-05;-0.202056884765625;3;;
733;;;;;;;12136.5491393582;-0.2001953125;-5.1239013671875E-05;-0.19964599609375;3;;
734;;;;;;;12136.7932803575;-0.19775390625;-4.8358154296875E-05;-0.19720458984375;3;;
735;;;;;;;12137.0374213569;-0.1953125;-4.54864501953125E-05;-0.194732666015625;3;;
736;;;;;;;12137.2815623563;-0.19287109375;-4.2645263671875E-05;-0.1923828125;3;;
737;;;;;;;12137.5257033557;-0.1904296875;-4.01336669921875E-05;-0.18988037109375;3;;
738;;;;;;;12137.7698443551;-0.18798828125;-3.77044677734375E-05;-0.187469482421875;3;;
739;;;;;;;12138.0139853545;-0.185546875;-3.53240966796875E-05;-0.18505859375;3;;
740;;;;;;;12138.2581263538;-0.18310546875;-3.31298828125E-05;-0.182586669921875;3;;
741;;;;;;;12138.5022673532;-0.1806640625;-3.116455078125E-05;-0.180145263671875;3;;
742;;;;;;;12138.7464083526;-0.17822265625;-2.91839599609375E-05;-0.177703857421875;3;;
743;;;;;;;12138.990549352;-0.17578125;-2.7301025390625E-05;-0.175262451171875;3;;
744;;;;;;;12139.2346903514;-0.17333984375;-2.5616455078125E-05;-0.1728515625;3;;
745;;;;;;;12139.4788313508;-0.1708984375;-2.398681640625E-05;-0.170379638671875;3;;
746;;;;;;;12139.7229723501;-0.16845703125;-2.23907470703125E-05;-0.167999267578125;3;;
747;;;;;;;12139.9671133495;-0.166015625;-2.095947265625E-05;-0.165557861328125;3;;
748;;;;;;;12140.2112543489;-0.16357421875;-1.9580078125E-05;-0.163055419921875;3;;
749;;;;;;;12140.4553953483;-0.1611328125;-1.82647705078125E-05;-0.160675048828125;3;;
750;;;;;;;12140.6995363477;-0.15869140625;-1.7047119140625E-05;-0.15826416015625;3;;
751;;;;;;;12140.9436773471;-0.15625;-1.59332275390625E-05;-0.155792236328125;3;;
752;;;;;;;12141.1878183464;-0.15380859375;-1.48193359375E-05;-0.15338134765625;3;;
753;;;;;;;12141.4319593458;-0.1513671875;-1.3787841796875E-05;-0.150909423828125;3;;
754;;;;;;;12141.6761003452;-0.14892578125;-1.285400390625E-05;-0.148468017578125;3;;
755;;;;;;;12141.9202413446;-0.146484375;-1.19720458984375E-05;-0.146026611328125;3;;
756;;;;;;;12142.164382344;-0.14404296875;-1.11053466796875E-05;-0.143646240234375;3;;
757;;;;;;;12142.4085233434;-0.1416015625;-1.0284423828125E-05;-0.14117431640625;3;;
758;;;;;;;12142.6526643428;-0.13916015625;-9.5428466796875E-06;-0.138763427734375;3;;
759;;;;;;;12142.8968053421;-0.13671875;-8.8226318359375E-06;-0.136322021484375;3;;
760;;;;;;;12143.1409463415;-0.13427734375;-8.148193359375E-06;-0.13385009765625;3;;
761;;;;;;;12143.3850873409;-0.1318359375;-7.5347900390625E-06;-0.131439208984375;3;;
762;;;;;;;12143.6292283403;-0.12939453125;-6.9244384765625E-06;-0.128997802734375;3;;
763;;;;;;;12143.8733693397;-0.126953125;-6.3873291015625E-06;-0.126556396484375;3;;
764;;;;;;;12144.1175103391;-0.12451171875;-5.8502197265625E-06;-0.124053955078125;3;;
765;;;;;;;12144.3616513384;-0.1220703125;-5.3436279296875E-06;-0.121612548828125;3;;
766;;;;;;;12144.6057923378;-0.11962890625;-4.9102783203125E-06;-0.119232177734375;3;;
767;;;;;;;12144.8499333372;-0.1171875;-4.4677734375E-06;-0.1168212890625;3;;
768;;;;;;;12145.0940743366;-0.11474609375;-4.058837890625E-06;-0.114349365234375;3;;
769;;;;;;;12145.338215336;-0.1123046875;-3.6724853515625E-06;-0.1119384765625;3;;
770;;;;;;;12145.5823563354;-0.10986328125;-3.32916259765625E-06;-0.1094970703125;3;;
771;;;;;;;12145.8264973347;-0.107421875;-2.974853515625E-06;-0.107025146484375;3;;
772;;;;;;;12146.0706383341;-0.10498046875;-2.64404296875E-06;-0.104644775390625;3;;
773;;;;;;;12146.3147793335;-0.1025390625;-2.35565185546875E-06;-0.102203369140625;3;;
774;;;;;;;12146.5589203329;-0.10009765625;-2.06695556640625E-06;-0.09967041015625;3;;
775;;;;;;;12146.8030613323;-0.09765625;-1.81243896484375E-06;-0.097320556640625;3;;
776;;;;;;;12147.0472023317;-0.09521484375;-1.5625E-06;-0.0948486328125;3;;
777;;;;;;;12147.291343331;-0.0927734375;-1.3201904296875E-06;-0.092437744140625;3;;
778;;;;;;;12147.5354843304;-0.09033203125;-1.075439453125E-06;-0.089996337890625;3;;
779;;;;;;;12147.7796253298;-0.087890625;-8.9447021484375E-07;-0.087493896484375;3;;
780;;;;;;;12148.0237663292;-0.08544921875;-6.97021484375E-07;-0.08514404296875;3;;
781;;;;;;;12148.2679073286;-0.0830078125;-5.0323486328125E-07;-0.08270263671875;3;;
782;;;;;;;12148.512048328;-0.08056640625;-3.2928466796875E-07;-0.080352783203125;3;;
783;;;;;;;12148.7561893273;-0.078125;-1.94091796875E-07;-0.07781982421875;3;;
784;;;;;;;12149.0003303267;-0.07568359375;-1.8310546875E-09;-0.07537841796875;3;;
785;;;;;;;12149.2444713261;-0.0732421875;1.556396484375E-07;-0.072998046875;3;;
786;;;;;;;12149.4886123255;-0.07080078125;2.667236328125E-07;-0.070587158203125;3;;
787;;;;;;;12149.7327533249;-0.068359375;4.3304443359375E-07;-0.068206787109375;3;;
788;;;;;;;12149.9768943243;-0.06591796875;5.6427001953125E-07;-0.065765380859375;3;;
789;;;;;;;12150.2210353236;-0.0634765625;6.75048828125E-07;-0.0633544921875;3;;
790;;;;;;;12150.465176323;-0.06103515625;7.8125E-07;-0.060760498046875;3;;
791;;;;;;;12150.7093173224;-0.05859375;9.1705322265625E-07;-0.0584716796875;3;;
792;;;;;;;12150.9534583218;-0.05615234375;1.02752685546875E-06;-0.0560302734375;3;;
793;;;;;;;12151.1975993212;-0.0537109375;1.08367919921875E-06;-0.053558349609375;3;;
794;;;;;;;12151.4417403206;-0.05126953125;1.20697021484375E-06;-0.051177978515625;3;;
795;;;;;;;12151.6858813199;-0.048828125;1.3006591796875E-06;-0.0485198974609375;3;;
796;;;;;;;12151.9300223193;-0.04638671875;1.3787841796875E-06;-0.0460479736328125;3;;
797;;;;;;;12152.1741633187;-0.0439453125;1.45904541015625E-06;-0.043609619140625;3;;
798;;;;;;;12152.4183043181;-0.04150390625;1.5594482421875E-06;-0.04111328125;3;;
799;;;;;;;12152.6624453175;-0.0390625;1.60552978515625E-06;-0.0387908935546875;3;;
800;;;;;;;12152.9065863169;-0.03662109375;1.67816162109375E-06;-0.0363037109375;3;;
801;;;;;;;12153.1507273162;-0.0341796875;1.7730712890625E-06;-0.0339935302734375;3;;
802;;;;;;;12153.3948683156;-0.03173828125;1.8194580078125E-06;-0.0314453125;3;;
803;;;;;;;12153.639009315;-0.029296875;1.86126708984375E-06;-0.02896728515625;3;;
804;;;;;;;12153.8831503144;-0.02685546875;1.95892333984375E-06;-0.0265594482421875;3;;
805;;;;;;;12154.1272913138;-0.0244140625;2.01385498046875E-06;-0.02410888671875;3;;
806;;;;;;;12154.3714323132;-0.02197265625;2.05902099609375E-06;-0.021783447265625;3;;
807;;;;;;;12154.6155733125;-0.01953125;2.10296630859375E-06;-0.0193115234375;3;;
808;;;;;;;12154.8597143119;-0.01708984375;2.16644287109375E-06;-0.0166717529296875;3;;
809;;;;;;;12155.1038553113;-0.0146484375;2.1807861328125E-06;-0.0144012451171875;3;;
810;;;;;;;12155.3479963107;-0.01220703125;2.21923828125E-06;-0.012042236328125;3;;
811;;;;;;;12155.5921373101;-0.009765625;2.279052734375E-06;-0.00948486328125001;3;;
812;;;;;;;12155.8362783095;-0.00732421875;2.30133056640625E-06;-0.00706787109375;3;;
813;;;;;;;12156.0804193088;-0.0048828125;2.3455810546875E-06;-0.004608154296875;3;;
814;;;;;;;12156.3245603082;-0.00244140625;2.3968505859375E-06;-0.00224609375;3;;
815;;;;;;;12156.5687013076;0;2.40386962890625E-06;0.000238037109375006;3;;
816;;;;;;;12156.812842307;0.00244140625;2.41241455078125E-06;0.00264892578125001;3;;
817;;;;;;;12157.0569833064;0.0048828125;2.46063232421875E-06;0.00511474609375;3;;
818;;;;;;;12157.3011243058;0.00732421875;2.4847412109375E-06;0.007598876953125;3;;
819;;;;;;;12157.5452653051;0.009765625;2.52044677734375E-06;0.01002197265625;3;;
820;;;;;;;12157.7894063045;0.01220703125;2.51678466796875E-06;0.0124664306640625;3;;
821;;;;;;;12158.0335473039;0.009765625;2.1563720703125E-06;0.010015869140625;3;;
822;;;;;;;12158.2776883033;0.00732421875;1.91925048828125E-06;0.00759277343750001;3;;
823;;;;;;;12158.5218293027;0.0048828125;1.70654296875E-06;0.00513610839843751;3;;
824;;;;;;;12158.7659703021;0.00244140625;1.556396484375E-06;0.0027130126953125;3;;
825;;;;;;;12159.0101113015;0;1.4215087890625E-06;0.000189208984374994;3;;
826;;;;;;;12159.2542523008;-0.00244140625;1.25946044921875E-06;-0.002166748046875;3;;
827;;;;;;;12159.4983933002;-0.0048828125;1.15325927734375E-06;-0.004559326171875;3;;
828;;;;;;;12159.7425342996;-0.00732421875;1.05560302734375E-06;-0.0071136474609375;3;;
829;;;;;;;12159.986675299;-0.009765625;9.393310546875E-07;-0.009539794921875;3;;
830;;;;;;;12160.2308162984;-0.01220703125;8.2672119140625E-07;-0.0119873046875;3;;
831;;;;;;;;;;;;;
832;;;;;;;;;;;;;
833;;;;;;;;;;;;;
834;;;;;;;;;;;;;
835;;;;;;;;;;;;;
836;;;;;;;;;;;;;
837;;;;;;;;;;;;;
838;;;;;;;;;;;;;
839;;;;;;;;;;;;;
840;;;;;;;;;;;;;
841;;;;;;;;;;;;;
842;;;;;;;;;;;;;
843;;;;;;;;;;;;;
844;;;;;;;;;;;;;
845;;;;;;;;;;;;;
846;;;;;;;;;;;;;
847;;;;;;;;;;;;;
848;;;;;;;;;;;;;
849;;;;;;;;;;;;;
850;;;;;;;;;;;;;
851;;;;;;;;;;;;;
852;;;;;;;;;;;;;
853;;;;;;;;;;;;;
854;;;;;;;;;;;;;
855;;;;;;;;;;;;;
856;;;;;;;;;;;;;
857;;;;;;;;;;;;;
858;;;;;;;;;;;;;
859;;;;;;;;;;;;;
860;;;;;;;;;;;;;
861;;;;;;;;;;;;;
862;;;;;;;;;;;;;
863;;;;;;;;;;;;;
864;;;;;;;;;;;;;
865;;;;;;;;;;;;;
866;;;;;;;;;;;;;
867;;;;;;;;;;;;;
868;;;;;;;;;;;;;
869;;;;;;;;;;;;;
870;;;;;;;;;;;;;
871;;;;;;;;;;;;;
872;;;;;;;;;;;;;
873;;;;;;;;;;;;;
874;;;;;;;;;;;;;
875;;;;;;;;;;;;;
876;;;;;;;;;;;;;
877;;;;;;;;;;;;;
878;;;;;;;;;;;;;
879;;;;;;;;;;;;;
880;;;;;;;;;;;;;
881;;;;;;;;;;;;;
882;;;;;;;;;;;;;
883;;;;;;;;;;;;;
884;;;;;;;;;;;;;
885;;;;;;;;;;;;;
886;;;;;;;;;;;;;
887;;;;;;;;;;;;;
888;;;;;;;;;;;;;
889;;;;;;;;;;;;;
890;;;;;;;;;;;;;
891;;;;;;;;;;;;;
892;;;;;;;;;;;;;
893;;;;;;;;;;;;;
894;;;;;;;;;;;;;
895;;;;;;;;;;;;;
896;;;;;;;;;;;;;
897;;;;;;;;;;;;;
898;;;;;;;;;;;;;
899;;;;;;;;;;;;;
900;;;;;;;;;;;;;
901;;;;;;;;;;;;;
902;;;;;;;;;;;;;
903;;;;;;;;;;;;;
904;;;;;;;;;;;;;
905;;;;;;;;;;;;;
906;;;;;;;;;;;;;
907;;;;;;;;;;;;;
908;;;;;;;;;;;;;
909;;;;;;;;;;;;;
910;;;;;;;;;;;;;
911;;;;;;;;;;;;;
912;;;;;;;;;;;;;
913;;;;;;;;;;;;;
914;;;;;;;;;;;;;
915;;;;;;;;;;;;;
916;;;;;;;;;;;;;
917;;;;;;;;;;;;;
918;;;;;;;;;;;;;
919;;;;;;;;;;;;;
920;;;;;;;;;;;;;
921;;;;;;;;;;;;;
922;;;;;;;;;;;;;
923;;;;;;;;;;;;;
924;;;;;;;;;;;;;
925;;;;;;;;;;;;;
926;;;;;;;;;;;;;
927;;;;;;;;;;;;;
928;;;;;;;;;;;;;
929;;;;;;;;;;;;;
930;;;;;;;;;;;;;
931;;;;;;;;;;;;;
932;;;;;;;;;;;;;
933;;;;;;;;;;;;;
934;;;;;;;;;;;;;
935;;;;;;;;;;;;;
936;;;;;;;;;;;;;
937;;;;;;;;;;;;;
938;;;;;;;;;;;;;
939;;;;;;;;;;;;;
940;;;;;;;;;;;;;
941;;;;;;;;;;;;;
942;;;;;;;;;;;;;
943;;;;;;;;;;;;;
944;;;;;;;;;;;;;
945;;;;;;;;;;;;;
946;;;;;;;;;;;;;
947;;;;;;;;;;;;;
948;;;;;;;;;;;;;
949;;;;;;;;;;;;;
950;;;;;;;;;;;;;
951;;;;;;;;;;;;;
952;;;;;;;;;;;;;
953;;;;;;;;;;;;;
954;;;;;;;;;;;;;
955;;;;;;;;;;;;;
956;;;;;;;;;;;;;
957;;;;;;;;;;;;;
958;;;;;;;;;;;;;
959;;;;;;;;;;;;;
960;;;;;;;;;;;;;
961;;;;;;;;;;;;;
962;;;;;;;;;;;;;
963;;;;;;;;;;;;;
964;;;;;;;;;;;;;
965;;;;;;;;;;;;;
966;;;;;;;;;;;;;
967;;;;;;;;;;;;;
968;;;;;;;;;;;;;
969;;;;;;;;;;;;;
970;;;;;;;;;;;;;
971;;;;;;;;;;;;;
972;;;;;;;;;;;;;
973;;;;;;;;;;;;;
974;;;;;;;;;;;;;
975;;;;;;;;;;;;;
976;;;;;;;;;;;;;
977;;;;;;;;;;;;;
978;;;;;;;;;;;;;
979;;;;;;;;;;;;;
980;;;;;;;;;;;;;
981;;;;;;;;;;;;;
982;;;;;;;;;;;;;
983;;;;;;;;;;;;;
984;;;;;;;;;;;;;
985;;;;;;;;;;;;;
986;;;;;;;;;;;;;
987;;;;;;;;;;;;;
988;;;;;;;;;;;;;
989;;;;;;;;;;;;;
990;;;;;;;;;;;;;
991;;;;;;;;;;;;;
992;;;;;;;;;;;;;
993;;;;;;;;;;;;;
994;;;;;;;;;;;;;
995;;;;;;;;;;;;;
996;;;;;;;;;;;;;
997;;;;;;;;;;;;;
998;;;;;;;;;;;;;
999;;;;;;;;;;;;;
1000;;;;;;;;;;;;;
1001;;;;;;;;;;;;;
1002;;;;;;;;;;;;;
1003;;;;;;;;;;;;;
1004;;;;;;;;;;;;;
1005;;;;;;;;;;;;;
1006;;;;;;;;;;;;;
1007;;;;;;;;;;;;;
1008;;;;;;;;;;;;;
1009;;;;;;;;;;;;;
1010;;;;;;;;;;;;;
1011;;;;;;;;;;;;;
1012;;;;;;;;;;;;;
1013;;;;;;;;;;;;;
1014;;;;;;;;;;;;;
1015;;;;;;;;;;;;;
1016;;;;;;;;;;;;;
1017;;;;;;;;;;;;;
1018;;;;;;;;;;;;;
1019;;;;;;;;;;;;;
1020;;;;;;;;;;;;;
1021;;;;;;;;;;;;;
1022;;;;;;;;;;;;;
1023;;;;;;;;;;;;;
1024;;;;;;;;;;;;;
1025;;;;;;;;;;;;;
1026;;;;;;;;;;;;;
1027;;;;;;;;;;;;;
1028;;;;;;;;;;;;;
1029;;;;;;;;;;;;;
1030;;;;;;;;;;;;;
1031;;;;;;;;;;;;;
1032;;;;;;;;;;;;;
1033;;;;;;;;;;;;;
1034;;;;;;;;;;;;;
1035;;;;;;;;;;;;;
1036;;;;;;;;;;;;;
1037;;;;;;;;;;;;;
1038;;;;;;;;;;;;;
1039;;;;;;;;;;;;;
1040;;;;;;;;;;;;;
1041;;;;;;;;;;;;;
1042;;;;;;;;;;;;;
1043;;;;;;;;;;;;;
1044;;;;;;;;;;;;;
1045;;;;;;;;;;;;;
1046;;;;;;;;;;;;;
1047;;;;;;;;;;;;;
1048;;;;;;;;;;;;;
1049;;;;;;;;;;;;;
1050;;;;;;;;;;;;;
1051;;;;;;;;;;;;;
1052;;;;;;;;;;;;;
1053;;;;;;;;;;;;;
1054;;;;;;;;;;;;;
1055;;;;;;;;;;;;;
1056;;;;;;;;;;;;;
1057;;;;;;;;;;;;;
1058;;;;;;;;;;;;;
1059;;;;;;;;;;;;;
1060;;;;;;;;;;;;;
1061;;;;;;;;;;;;;
1062;;;;;;;;;;;;;
1063;;;;;;;;;;;;;
1064;;;;;;;;;;;;;
1065;;;;;;;;;;;;;
1066;;;;;;;;;;;;;
1067;;;;;;;;;;;;;
1068;;;;;;;;;;;;;
1069;;;;;;;;;;;;;
1070;;;;;;;;;;;;;
1071;;;;;;;;;;;;;
1072;;;;;;;;;;;;;
1073;;;;;;;;;;;;;
1074;;;;;;;;;;;;;
1075;;;;;;;;;;;;;
1076;;;;;;;;;;;;;
1077;;;;;;;;;;;;;
1078;;;;;;;;;;;;;
1079;;;;;;;;;;;;;
1080;;;;;;;;;;;;;
1081;;;;;;;;;;;;;
1082;;;;;;;;;;;;;
1083;;;;;;;;;;;;;
1084;;;;;;;;;;;;;
1085;;;;;;;;;;;;;
1086;;;;;;;;;;;;;
1087;;;;;;;;;;;;;
1088;;;;;;;;;;;;;
1089;;;;;;;;;;;;;
1090;;;;;;;;;;;;;
1091;;;;;;;;;;;;;
1092;;;;;;;;;;;;;
1093;;;;;;;;;;;;;
1094;;;;;;;;;;;;;
1095;;;;;;;;;;;;;
1096;;;;;;;;;;;;;
1097;;;;;;;;;;;;;
1098;;;;;;;;;;;;;
1099;;;;;;;;;;;;;
1100;;;;;;;;;;;;;
1101;;;;;;;;;;;;;
1102;;;;;;;;;;;;;
1103;;;;;;;;;;;;;
1104;;;;;;;;;;;;;
1105;;;;;;;;;;;;;
1106;;;;;;;;;;;;;
1107;;;;;;;;;;;;;
1108;;;;;;;;;;;;;
1109;;;;;;;;;;;;;
1110;;;;;;;;;;;;;
1111;;;;;;;;;;;;;
1112;;;;;;;;;;;;;
1113;;;;;;;;;;;;;
1114;;;;;;;;;;;;;
1115;;;;;;;;;;;;;
1116;;;;;;;;;;;;;
1117;;;;;;;;;;;;;
1118;;;;;;;;;;;;;
1119;;;;;;;;;;;;;
1120;;;;;;;;;;;;;
1121;;;;;;;;;;;;;
1122;;;;;;;;;;;;;
1123;;;;;;;;;;;;;
1124;;;;;;;;;;;;;
1125;;;;;;;;;;;;;
1126;;;;;;;;;;;;;
1127;;;;;;;;;;;;;
1128;;;;;;;;;;;;;
1129;;;;;;;;;;;;;
1130;;;;;;;;;;;;;
1131;;;;;;;;;;;;;
1132;;;;;;;;;;;;;
1133;;;;;;;;;;;;;
1134;;;;;;;;;;;;;
1135;;;;;;;;;;;;;
1136;;;;;;;;;;;;;
1137;;;;;;;;;;;;;
1138;;;;;;;;;;;;;
1139;;;;;;;;;;;;;
1140;;;;;;;;;;;;;
1141;;;;;;;;;;;;;
1142;;;;;;;;;;;;;
1143;;;;;;;;;;;;;
1144;;;;;;;;;;;;;
1145;;;;;;;;;;;;;
1146;;;;;;;;;;;;;
1147;;;;;;;;;;;;;
1148;;;;;;;;;;;;;
1149;;;;;;;;;;;;;
1150;;;;;;;;;;;;;
1151;;;;;;;;;;;;;
1152;;;;;;;;;;;;;
1153;;;;;;;;;;;;;
1154;;;;;;;;;;;;;
1155;;;;;;;;;;;;;
1156;;;;;;;;;;;;;
1157;;;;;;;;;;;;;
1158;;;;;;;;;;;;;
1159;;;;;;;;;;;;;
1160;;;;;;;;;;;;;
1161;;;;;;;;;;;;;
1162;;;;;;;;;;;;;
1163;;;;;;;;;;;;;
1164;;;;;;;;;;;;;
1165;;;;;;;;;;;;;
1166;;;;;;;;;;;;;
1167;;;;;;;;;;;;;
1168;;;;;;;;;;;;;
1169;;;;;;;;;;;;;
1170;;;;;;;;;;;;;
1171;;;;;;;;;;;;;
1172;;;;;;;;;;;;;
1173;;;;;;;;;;;;;
1174;;;;;;;;;;;;;
1175;;;;;;;;;;;;;
1176;;;;;;;;;;;;;
1177;;;;;;;;;;;;;
1178;;;;;;;;;;;;;
1179;;;;;;;;;;;;;
1180;;;;;;;;;;;;;
1181;;;;;;;;;;;;;
1182;;;;;;;;;;;;;
1183;;;;;;;;;;;;;
1184;;;;;;;;;;;;;
1185;;;;;;;;;;;;;
1186;;;;;;;;;;;;;
1187;;;;;;;;;;;;;
1188;;;;;;;;;;;;;
1189;;;;;;;;;;;;;
1190;;;;;;;;;;;;;
1191;;;;;;;;;;;;;
1192;;;;;;;;;;;;;
1193;;;;;;;;;;;;;
1194;;;;;;;;;;;;;
1195;;;;;;;;;;;;;
1196;;;;;;;;;;;;;
1197;;;;;;;;;;;;;
1198;;;;;;;;;;;;;
1199;;;;;;;;;;;;;
1200;;;;;;;;;;;;;
1201;;;;;;;;;;;;;
1202;;;;;;;;;;;;;
1203;;;;;;;;;;;;;
1204;;;;;;;;;;;;;
1205;;;;;;;;;;;;;
1206;;;;;;;;;;;;;
1207;;;;;;;;;;;;;
1208;;;;;;;;;;;;;
1209;;;;;;;;;;;;;
1210;;;;;;;;;;;;;
1211;;;;;;;;;;;;;
1212;;;;;;;;;;;;;
1213;;;;;;;;;;;;;
1214;;;;;;;;;;;;;
1215;;;;;;;;;;;;;
1216;;;;;;;;;;;;;
1217;;;;;;;;;;;;;
1218;;;;;;;;;;;;;
1219;;;;;;;;;;;;;
1220;;;;;;;;;;;;;
1221;;;;;;;;;;;;;
1222;;;;;;;;;;;;;
1223;;;;;;;;;;;;;
1224;;;;;;;;;;;;;
1225;;;;;;;;;;;;;
1226;;;;;;;;;;;;;
1227;;;;;;;;;;;;;
1228;;;;;;;;;;;;;
1229;;;;;;;;;;;;;
1230;;;;;;;;;;;;;
1231;;;;;;;;;;;;;
1232;;;;;;;;;;;;;
1233;;;;;;;;;;;;;
1234;;;;;;;;;;;;;
1235;;;;;;;;;;;;;
1236;;;;;;;;;;;;;
1237;;;;;;;;;;;;;
1238;;;;;;;;;;;;;
1239;;;;;;;;;;;;;
1240;;;;;;;;;;;;;
1241;;;;;;;;;;;;;
1242;;;;;;;;;;;;;
1243;;;;;;;;;;;;;
1244;;;;;;;;;;;;;
1245;;;;;;;;;;;;;
1246;;;;;;;;;;;;;
1247;;;;;;;;;;;;;
1248;;;;;;;;;;;;;
1249;;;;;;;;;;;;;
1250;;;;;;;;;;;;;
1251;;;;;;;;;;;;;
1252;;;;;;;;;;;;;
1253;;;;;;;;;;;;;
1254;;;;;;;;;;;;;
1255;;;;;;;;;;;;;
1256;;;;;;;;;;;;;
1257;;;;;;;;;;;;;
1258;;;;;;;;;;;;;
1259;;;;;;;;;;;;;
1260;;;;;;;;;;;;;
1261;;;;;;;;;;;;;
1262;;;;;;;;;;;;;
1263;;;;;;;;;;;;;
1264;;;;;;;;;;;;;
1265;;;;;;;;;;;;;
1266;;;;;;;;;;;;;
1267;;;;;;;;;;;;;
1268;;;;;;;;;;;;;
1269;;;;;;;;;;;;;
1270;;;;;;;;;;;;;
1271;;;;;;;;;;;;;
1272;;;;;;;;;;;;;
1273;;;;;;;;;;;;;
1274;;;;;;;;;;;;;
1275;;;;;;;;;;;;;
1276;;;;;;;;;;;;;
1277;;;;;;;;;;;;;
1278;;;;;;;;;;;;;
1279;;;;;;;;;;;;;
1280;;;;;;;;;;;;;
1281;;;;;;;;;;;;;
1282;;;;;;;;;;;;;
1283;;;;;;;;;;;;;
1284;;;;;;;;;;;;;
1285;;;;;;;;;;;;;
1286;;;;;;;;;;;;;
1287;;;;;;;;;;;;;
1288;;;;;;;;;;;;;
1289;;;;;;;;;;;;;
1290;;;;;;;;;;;;;
1291;;;;;;;;;;;;;
1292;;;;;;;;;;;;;
1293;;;;;;;;;;;;;
1294;;;;;;;;;;;;;
1295;;;;;;;;;;;;;
1296;;;;;;;;;;;;;
1297;;;;;;;;;;;;;
1298;;;;;;;;;;;;;
1299;;;;;;;;;;;;;
1300;;;;;;;;;;;;;
1301;;;;;;;;;;;;;
1302;;;;;;;;;;;;;
1303;;;;;;;;;;;;;
1304;;;;;;;;;;;;;
1305;;;;;;;;;;;;;
1306;;;;;;;;;;;;;
1307;;;;;;;;;;;;;
1308;;;;;;;;;;;;;
1309;;;;;;;;;;;;;
1310;;;;;;;;;;;;;
1311;;;;;;;;;;;;;
1312;;;;;;;;;;;;;
1313;;;;;;;;;;;;;
1314;;;;;;;;;;;;;
1315;;;;;;;;;;;;;
1316;;;;;;;;;;;;;
1317;;;;;;;;;;;;;
1318;;;;;;;;;;;;;
1319;;;;;;;;;;;;;
1320;;;;;;;;;;;;;
1321;;;;;;;;;;;;;
1322;;;;;;;;;;;;;
1323;;;;;;;;;;;;;
1324;;;;;;;;;;;;;
1325;;;;;;;;;;;;;
1326;;;;;;;;;;;;;
1327;;;;;;;;;;;;;
1328;;;;;;;;;;;;;
1329;;;;;;;;;;;;;
1330;;;;;;;;;;;;;
1331;;;;;;;;;;;;;
1332;;;;;;;;;;;;;
1333;;;;;;;;;;;;;
1334;;;;;;;;;;;;;
1335;;;;;;;;;;;;;
1336;;;;;;;;;;;;;
1337;;;;;;;;;;;;;
1338;;;;;;;;;;;;;
1339;;;;;;;;;;;;;
1340;;;;;;;;;;;;;
1341;;;;;;;;;;;;;
1342;;;;;;;;;;;;;
1343;;;;;;;;;;;;;
1344;;;;;;;;;;;;;
1345;;;;;;;;;;;;;
1346;;;;;;;;;;;;;
1347;;;;;;;;;;;;;
1348;;;;;;;;;;;;;
1349;;;;;;;;;;;;;
1350;;;;;;;;;;;;;
1351;;;;;;;;;;;;;
1352;;;;;;;;;;;;;
1353;;;;;;;;;;;;;
1354;;;;;;;;;;;;;
1355;;;;;;;;;;;;;
1356;;;;;;;;;;;;;
1357;;;;;;;;;;;;;
1358;;;;;;;;;;;;;
1359;;;;;;;;;;;;;
1360;;;;;;;;;;;;;
1361;;;;;;;;;;;;;
1362;;;;;;;;;;;;;
1363;;;;;;;;;;;;;
1364;;;;;;;;;;;;;
1365;;;;;;;;;;;;;
1366;;;;;;;;;;;;;
1367;;;;;;;;;;;;;
1368;;;;;;;;;;;;;
1369;;;;;;;;;;;;;
1370;;;;;;;;;;;;;
1371;;;;;;;;;;;;;
1372;;;;;;;;;;;;;
1373;;;;;;;;;;;;;
1374;;;;;;;;;;;;;
1375;;;;;;;;;;;;;
1376;;;;;;;;;;;;;
1377;;;;;;;;;;;;;
1378;;;;;;;;;;;;;
1379;;;;;;;;;;;;;
1380;;;;;;;;;;;;;
1381;;;;;;;;;;;;;
1382;;;;;;;;;;;;;
1383;;;;;;;;;;;;;
1384;;;;;;;;;;;;;
1385;;;;;;;;;;;;;
1386;;;;;;;;;;;;;
1387;;;;;;;;;;;;;
1388;;;;;;;;;;;;;
1389;;;;;;;;;;;;;
1390;;;;;;;;;;;;;
1391;;;;;;;;;;;;;
1392;;;;;;;;;;;;;
1393;;;;;;;;;;;;;
1394;;;;;;;;;;;;;
1395;;;;;;;;;;;;;
1396;;;;;;;;;;;;;
1397;;;;;;;;;;;;;
1398;;;;;;;;;;;;;
1399;;;;;;;;;;;;;
1400;;;;;;;;;;;;;
1401;;;;;;;;;;;;;
1402;;;;;;;;;;;;;
1403;;;;;;;;;;;;;
1404;;;;;;;;;;;;;
1405;;;;;;;;;;;;;
1406;;;;;;;;;;;;;
1407;;;;;;;;;;;;;
1408;;;;;;;;;;;;;
1409;;;;;;;;;;;;;
1410;;;;;;;;;;;;;
1411;;;;;;;;;;;;;
1412;;;;;;;;;;;;;
1413;;;;;;;;;;;;;
1414;;;;;;;;;;;;;
1415;;;;;;;;;;;;;
1416;;;;;;;;;;;;;
1417;;;;;;;;;;;;;
1418;;;;;;;;;;;;;
1419;;;;;;;;;;;;;
1420;;;;;;;;;;;;;
1421;;;;;;;;;;;;;
1422;;;;;;;;;;;;;
1423;;;;;;;;;;;;;
1424;;;;;;;;;;;;;
1425;;;;;;;;;;;;;
1426;;;;;;;;;;;;;
1427;;;;;;;;;;;;;
1428;;;;;;;;;;;;;
1429;;;;;;;;;;;;;
1430;;;;;;;;;;;;;
1431;;;;;;;;;;;;;
1432;;;;;;;;;;;;;
1433;;;;;;;;;;;;;
1434;;;;;;;;;;;;;
1435;;;;;;;;;;;;;
1436;;;;;;;;;;;;;
1437;;;;;;;;;;;;;
1438;;;;;;;;;;;;;
1439;;;;;;;;;;;;;
1440;;;;;;;;;;;;;
1441;;;;;;;;;;;;;
1442;;;;;;;;;;;;;
1443;;;;;;;;;;;;;
1444;;;;;;;;;;;;;
1445;;;;;;;;;;;;;
1446;;;;;;;;;;;;;
1447;;;;;;;;;;;;;
1448;;;;;;;;;;;;;
1449;;;;;;;;;;;;;
1450;;;;;;;;;;;;;
1451;;;;;;;;;;;;;
1452;;;;;;;;;;;;;
1453;;;;;;;;;;;;;
1454;;;;;;;;;;;;;
1455;;;;;;;;;;;;;
1456;;;;;;;;;;;;;
1457;;;;;;;;;;;;;
1458;;;;;;;;;;;;;
1459;;;;;;;;;;;;;
1460;;;;;;;;;;;;;
1461;;;;;;;;;;;;;
1462;;;;;;;;;;;;;
1463;;;;;;;;;;;;;
1464;;;;;;;;;;;;;
1465;;;;;;;;;;;;;
1466;;;;;;;;;;;;;
1467;;;;;;;;;;;;;
1468;;;;;;;;;;;;;
1469;;;;;;;;;;;;;
1470;;;;;;;;;;;;;
1471;;;;;;;;;;;;;
1472;;;;;;;;;;;;;
1473;;;;;;;;;;;;;
1474;;;;;;;;;;;;;
1475;;;;;;;;;;;;;
1476;;;;;;;;;;;;;
1477;;;;;;;;;;;;;
1478;;;;;;;;;;;;;
1479;;;;;;;;;;;;;
1480;;;;;;;;;;;;;
1481;;;;;;;;;;;;;
1482;;;;;;;;;;;;;
1483;;;;;;;;;;;;;
1484;;;;;;;;;;;;;
1485;;;;;;;;;;;;;
1486;;;;;;;;;;;;;
1487;;;;;;;;;;;;;
1488;;;;;;;;;;;;;
1489;;;;;;;;;;;;;
1490;;;;;;;;;;;;;
1491;;;;;;;;;;;;;
1492;;;;;;;;;;;;;
1493;;;;;;;;;;;;;
1494;;;;;;;;;;;;;
1495;;;;;;;;;;;;;
1496;;;;;;;;;;;;;
1497;;;;;;;;;;;;;
1498;;;;;;;;;;;;;
1499;;;;;;;;;;;;;
1500;;;;;;;;;;;;;
1501;;;;;;;;;;;;;
1502;;;;;;;;;;;;;
1503;;;;;;;;;;;;;
1504;;;;;;;;;;;;;
1505;;;;;;;;;;;;;
1506;;;;;;;;;;;;;
1507;;;;;;;;;;;;;
1508;;;;;;;;;;;;;
1509;;;;;;;;;;;;;
1510;;;;;;;;;;;;;
1511;;;;;;;;;;;;;
1512;;;;;;;;;;;;;
1513;;;;;;;;;;;;;
1514;;;;;;;;;;;;;
1515;;;;;;;;;;;;;
1516;;;;;;;;;;;;;
1517;;;;;;;;;;;;;
1518;;;;;;;;;;;;;
1519;;;;;;;;;;;;;
1520;;;;;;;;;;;;;
1521;;;;;;;;;;;;;
1522;;;;;;;;;;;;;
1523;;;;;;;;;;;;;
1524;;;;;;;;;;;;;
1525;;;;;;;;;;;;;
1526;;;;;;;;;;;;;
1527;;;;;;;;;;;;;
1528;;;;;;;;;;;;;
1529;;;;;;;;;;;;;
1530;;;;;;;;;;;;;
1531;;;;;;;;;;;;;
1532;;;;;;;;;;;;;
1533;;;;;;;;;;;;;
1534;;;;;;;;;;;;;
1535;;;;;;;;;;;;;
1536;;;;;;;;;;;;;
1537;;;;;;;;;;;;;
1538;;;;;;;;;;;;;
1539;;;;;;;;;;;;;
1540;;;;;;;;;;;;;
1541;;;;;;;;;;;;;
1542;;;;;;;;;;;;;
1543;;;;;;;;;;;;;
1544;;;;;;;;;;;;;
1545;;;;;;;;;;;;;
1546;;;;;;;;;;;;;
1547;;;;;;;;;;;;;
1548;;;;;;;;;;;;;
1549;;;;;;;;;;;;;
1550;;;;;;;;;;;;;
1551;;;;;;;;;;;;;
1552;;;;;;;;;;;;;
1553;;;;;;;;;;;;;
1554;;;;;;;;;;;;;
1555;;;;;;;;;;;;;
1556;;;;;;;;;;;;;
1557;;;;;;;;;;;;;
1558;;;;;;;;;;;;;
1559;;;;;;;;;;;;;
1560;;;;;;;;;;;;;
1561;;;;;;;;;;;;;
1562;;;;;;;;;;;;;
1563;;;;;;;;;;;;;
1564;;;;;;;;;;;;;
1565;;;;;;;;;;;;;
1566;;;;;;;;;;;;;
1567;;;;;;;;;;;;;
1568;;;;;;;;;;;;;
1569;;;;;;;;;;;;;
1570;;;;;;;;;;;;;
1571;;;;;;;;;;;;;
1572;;;;;;;;;;;;;
1573;;;;;;;;;;;;;
1574;;;;;;;;;;;;;
1575;;;;;;;;;;;;;
1576;;;;;;;;;;;;;
1577;;;;;;;;;;;;;
1578;;;;;;;;;;;;;
1579;;;;;;;;;;;;;
1580;;;;;;;;;;;;;
1581;;;;;;;;;;;;;
1582;;;;;;;;;;;;;
1583;;;;;;;;;;;;;
1584;;;;;;;;;;;;;
1585;;;;;;;;;;;;;
1586;;;;;;;;;;;;;
1587;;;;;;;;;;;;;
1588;;;;;;;;;;;;;
1589;;;;;;;;;;;;;
1590;;;;;;;;;;;;;
1591;;;;;;;;;;;;;
1592;;;;;;;;;;;;;
1593;;;;;;;;;;;;;
1594;;;;;;;;;;;;;
1595;;;;;;;;;;;;;
1596;;;;;;;;;;;;;
1597;;;;;;;;;;;;;
1598;;;;;;;;;;;;;
1599;;;;;;;;;;;;;
1600;;;;;;;;;;;;;
1601;;;;;;;;;;;;;
1602;;;;;;;;;;;;;
1603;;;;;;;;;;;;;
1604;;;;;;;;;;;;;
1605;;;;;;;;;;;;;
1606;;;;;;;;;;;;;
1607;;;;;;;;;;;;;
1608;;;;;;;;;;;;;
1609;;;;;;;;;;;;;
1610;;;;;;;;;;;;;
1611;;;;;;;;;;;;;
1612;;;;;;;;;;;;;
1613;;;;;;;;;;;;;
1614;;;;;;;;;;;;;
1615;;;;;;;;;;;;;
1616;;;;;;;;;;;;;
1617;;;;;;;;;;;;;
1618;;;;;;;;;;;;;
1619;;;;;;;;;;;;;
1620;;;;;;;;;;;;;
1621;;;;;;;;;;;;;
1622;;;;;;;;;;;;;
1623;;;;;;;;;;;;;
1624;;;;;;;;;;;;;
1625;;;;;;;;;;;;;
1626;;;;;;;;;;;;;
1627;;;;;;;;;;;;;
1628;;;;;;;;;;;;;
1629;;;;;;;;;;;;;
1630;;;;;;;;;;;;;
1631;;;;;;;;;;;;;
1632;;;;;;;;;;;;;
1633;;;;;;;;;;;;;
1634;;;;;;;;;;;;;
1635;;;;;;;;;;;;;
1636;;;;;;;;;;;;;
1637;;;;;;;;;;;;;
1638;;;;;;;;;;;;;
1639;;;;;;;;;;;;;
1640;;;;;;;;;;;;;
1641;;;;;;;;;;;;;
1642;;;;;;;;;;;;;
1643;;;;;;;;;;;;;
1644;;;;;;;;;;;;;
1645;;;;;;;;;;;;;
1646;;;;;;;;;;;;;
1647;;;;;;;;;;;;;
1648;;;;;;;;;;;;;
1649;;;;;;;;;;;;;
1650;;;;;;;;;;;;;
1651;;;;;;;;;;;;;
1652;;;;;;;;;;;;;
1653;;;;;;;;;;;;;
1654;;;;;;;;;;;;;
1655;;;;;;;;;;;;;
1656;;;;;;;;;;;;;
1657;;;;;;;;;;;;;
1658;;;;;;;;;;;;;
1659;;;;;;;;;;;;;
1660;;;;;;;;;;;;;
1661;;;;;;;;;;;;;
1662;;;;;;;;;;;;;
1663;;;;;;;;;;;;;
1664;;;;;;;;;;;;;
1665;;;;;;;;;;;;;
1666;;;;;;;;;;;;;
1667;;;;;;;;;;;;;
1668;;;;;;;;;;;;;
1669;;;;;;;;;;;;;
1670;;;;;;;;;;;;;
1671;;;;;;;;;;;;;
1672;;;;;;;;;;;;;
1673;;;;;;;;;;;;;
1674;;;;;;;;;;;;;
1675;;;;;;;;;;;;;
1676;;;;;;;;;;;;;
1677;;;;;;;;;;;;;
1678;;;;;;;;;;;;;
1679;;;;;;;;;;;;;
1680;;;;;;;;;;;;;
1681;;;;;;;;;;;;;
1682;;;;;;;;;;;;;
1683;;;;;;;;;;;;;
1684;;;;;;;;;;;;;
1685;;;;;;;;;;;;;
1686;;;;;;;;;;;;;
1687;;;;;;;;;;;;;
1688;;;;;;;;;;;;;
1689;;;;;;;;;;;;;
1690;;;;;;;;;;;;;
1691;;;;;;;;;;;;;
1692;;;;;;;;;;;;;
1693;;;;;;;;;;;;;
1694;;;;;;;;;;;;;
1695;;;;;;;;;;;;;
1696;;;;;;;;;;;;;
1697;;;;;;;;;;;;;
1698;;;;;;;;;;;;;
1699;;;;;;;;;;;;;
1700;;;;;;;;;;;;;
1701;;;;;;;;;;;;;
1702;;;;;;;;;;;;;
1703;;;;;;;;;;;;;
1704;;;;;;;;;;;;;
1705;;;;;;;;;;;;;
1706;;;;;;;;;;;;;
1707;;;;;;;;;;;;;
1708;;;;;;;;;;;;;
1709;;;;;;;;;;;;;
1710;;;;;;;;;;;;;
1711;;;;;;;;;;;;;
1712;;;;;;;;;;;;;
1713;;;;;;;;;;;;;
1714;;;;;;;;;;;;;
1715;;;;;;;;;;;;;
1716;;;;;;;;;;;;;
1717;;;;;;;;;;;;;
1718;;;;;;;;;;;;;
1719;;;;;;;;;;;;;
1720;;;;;;;;;;;;;
1721;;;;;;;;;;;;;
1722;;;;;;;;;;;;;
1723;;;;;;;;;;;;;
1724;;;;;;;;;;;;;
1725;;;;;;;;;;;;;
1726;;;;;;;;;;;;;
1727;;;;;;;;;;;;;
1728;;;;;;;;;;;;;
1729;;;;;;;;;;;;;
1730;;;;;;;;;;;;;
1731;;;;;;;;;;;;;
1732;;;;;;;;;;;;;
1733;;;;;;;;;;;;;
1734;;;;;;;;;;;;;
1735;;;;;;;;;;;;;
1736;;;;;;;;;;;;;
1737;;;;;;;;;;;;;
1738;;;;;;;;;;;;;
1739;;;;;;;;;;;;;
1740;;;;;;;;;;;;;
1741;;;;;;;;;;;;;
1742;;;;;;;;;;;;;
1743;;;;;;;;;;;;;
1744;;;;;;;;;;;;;
1745;;;;;;;;;;;;;
1746;;;;;;;;;;;;;
1747;;;;;;;;;;;;;
1748;;;;;;;;;;;;;
1749;;;;;;;;;;;;;
1750;;;;;;;;;;;;;
1751;;;;;;;;;;;;;
1752;;;;;;;;;;;;;
1753;;;;;;;;;;;;;
1754;;;;;;;;;;;;;
1755;;;;;;;;;;;;;
1756;;;;;;;;;;;;;
1757;;;;;;;;;;;;;
1758;;;;;;;;;;;;;
1759;;;;;;;;;;;;;
1760;;;;;;;;;;;;;
1761;;;;;;;;;;;;;
1762;;;;;;;;;;;;;
1763;;;;;;;;;;;;;
1764;;;;;;;;;;;;;
1765;;;;;;;;;;;;;
1766;;;;;;;;;;;;;
1767;;;;;;;;;;;;;
1768;;;;;;;;;;;;;
1769;;;;;;;;;;;;;
1770;;;;;;;;;;;;;
1771;;;;;;;;;;;;;
1772;;;;;;;;;;;;;
1773;;;;;;;;;;;;;
1774;;;;;;;;;;;;;
1775;;;;;;;;;;;;;
1776;;;;;;;;;;;;;
1777;;;;;;;;;;;;;
1778;;;;;;;;;;;;;
1779;;;;;;;;;;;;;
1780;;;;;;;;;;;;;
1781;;;;;;;;;;;;;
1782;;;;;;;;;;;;;
1783;;;;;;;;;;;;;
1784;;;;;;;;;;;;;
1785;;;;;;;;;;;;;
1786;;;;;;;;;;;;;
1787;;;;;;;;;;;;;
1788;;;;;;;;;;;;;
1789;;;;;;;;;;;;;
1790;;;;;;;;;;;;;
1791;;;;;;;;;;;;;
1792;;;;;;;;;;;;;
1793;;;;;;;;;;;;;
1794;;;;;;;;;;;;;
1795;;;;;;;;;;;;;
1796;;;;;;;;;;;;;
1797;;;;;;;;;;;;;
1798;;;;;;;;;;;;;
1799;;;;;;;;;;;;;
1800;;;;;;;;;;;;;
1801;;;;;;;;;;;;;
1802;;;;;;;;;;;;;
1803;;;;;;;;;;;;;
1804;;;;;;;;;;;;;
1805;;;;;;;;;;;;;
1806;;;;;;;;;;;;;
1807;;;;;;;;;;;;;
1808;;;;;;;;;;;;;
1809;;;;;;;;;;;;;
1810;;;;;;;;;;;;;
1811;;;;;;;;;;;;;
1812;;;;;;;;;;;;;
1813;;;;;;;;;;;;;
1814;;;;;;;;;;;;;
1815;;;;;;;;;;;;;
1816;;;;;;;;;;;;;
1817;;;;;;;;;;;;;
1818;;;;;;;;;;;;;
1819;;;;;;;;;;;;;
1820;;;;;;;;;;;;;
1821;;;;;;;;;;;;;
1822;;;;;;;;;;;;;
1823;;;;;;;;;;;;;
1824;;;;;;;;;;;;;
1825;;;;;;;;;;;;;
1826;;;;;;;;;;;;;
1827;;;;;;;;;;;;;
1828;;;;;;;;;;;;;
1829;;;;;;;;;;;;;
1830;;;;;;;;;;;;;
1831;;;;;;;;;;;;;
1832;;;;;;;;;;;;;
1833;;;;;;;;;;;;;
1834;;;;;;;;;;;;;
1835;;;;;;;;;;;;;
1836;;;;;;;;;;;;;
1837;;;;;;;;;;;;;
1838;;;;;;;;;;;;;
1839;;;;;;;;;;;;;
1840;;;;;;;;;;;;;
1841;;;;;;;;;;;;;
1842;;;;;;;;;;;;;
1843;;;;;;;;;;;;;
1844;;;;;;;;;;;;;
1845;;;;;;;;;;;;;
1846;;;;;;;;;;;;;
1847;;;;;;;;;;;;;
1848;;;;;;;;;;;;;
1849;;;;;;;;;;;;;
1850;;;;;;;;;;;;;
1851;;;;;;;;;;;;;
1852;;;;;;;;;;;;;
1853;;;;;;;;;;;;;
1854;;;;;;;;;;;;;
1855;;;;;;;;;;;;;
1856;;;;;;;;;;;;;
1857;;;;;;;;;;;;;
1858;;;;;;;;;;;;;
1859;;;;;;;;;;;;;
1860;;;;;;;;;;;;;
1861;;;;;;;;;;;;;
1862;;;;;;;;;;;;;
1863;;;;;;;;;;;;;
1864;;;;;;;;;;;;;
1865;;;;;;;;;;;;;
1866;;;;;;;;;;;;;
1867;;;;;;;;;;;;;
1868;;;;;;;;;;;;;
1869;;;;;;;;;;;;;
1870;;;;;;;;;;;;;
1871;;;;;;;;;;;;;
1872;;;;;;;;;;;;;
1873;;;;;;;;;;;;;
1874;;;;;;;;;;;;;
1875;;;;;;;;;;;;;
1876;;;;;;;;;;;;;
1877;;;;;;;;;;;;;
1878;;;;;;;;;;;;;
1879;;;;;;;;;;;;;
1880;;;;;;;;;;;;;
1881;;;;;;;;;;;;;
1882;;;;;;;;;;;;;
1883;;;;;;;;;;;;;
1884;;;;;;;;;;;;;
1885;;;;;;;;;;;;;
1886;;;;;;;;;;;;;
1887;;;;;;;;;;;;;
1888;;;;;;;;;;;;;
1889;;;;;;;;;;;;;
1890;;;;;;;;;;;;;
1891;;;;;;;;;;;;;
1892;;;;;;;;;;;;;
1893;;;;;;;;;;;;;
1894;;;;;;;;;;;;;
1895;;;;;;;;;;;;;
1896;;;;;;;;;;;;;
1897;;;;;;;;;;;;;
1898;;;;;;;;;;;;;
1899;;;;;;;;;;;;;
1900;;;;;;;;;;;;;
1901;;;;;;;;;;;;;
1902;;;;;;;;;;;;;
1903;;;;;;;;;;;;;
1904;;;;;;;;;;;;;
1905;;;;;;;;;;;;;
1906;;;;;;;;;;;;;
1907;;;;;;;;;;;;;
1908;;;;;;;;;;;;;
1909;;;;;;;;;;;;;
1910;;;;;;;;;;;;;
1911;;;;;;;;;;;;;
1912;;;;;;;;;;;;;
1913;;;;;;;;;;;;;
1914;;;;;;;;;;;;;
1915;;;;;;;;;;;;;
1916;;;;;;;;;;;;;
1917;;;;;;;;;;;;;
1918;;;;;;;;;;;;;
1919;;;;;;;;;;;;;
1920;;;;;;;;;;;;;
1921;;;;;;;;;;;;;
1922;;;;;;;;;;;;;
1923;;;;;;;;;;;;;
1924;;;;;;;;;;;;;
1925;;;;;;;;;;;;;
1926;;;;;;;;;;;;;
1927;;;;;;;;;;;;;
1928;;;;;;;;;;;;;
1929;;;;;;;;;;;;;
1930;;;;;;;;;;;;;
1931;;;;;;;;;;;;;
1932;;;;;;;;;;;;;
1933;;;;;;;;;;;;;
1934;;;;;;;;;;;;;
1935;;;;;;;;;;;;;
1936;;;;;;;;;;;;;
1937;;;;;;;;;;;;;
1938;;;;;;;;;;;;;
1939;;;;;;;;;;;;;
1940;;;;;;;;;;;;;
1941;;;;;;;;;;;;;
1942;;;;;;;;;;;;;
1943;;;;;;;;;;;;;
1944;;;;;;;;;;;;;
1945;;;;;;;;;;;;;
1946;;;;;;;;;;;;;
1947;;;;;;;;;;;;;
1948;;;;;;;;;;;;;
1949;;;;;;;;;;;;;
1950;;;;;;;;;;;;;
1951;;;;;;;;;;;;;
1952;;;;;;;;;;;;;
1953;;;;;;;;;;;;;
1954;;;;;;;;;;;;;
1955;;;;;;;;;;;;;
1956;;;;;;;;;;;;;
1957;;;;;;;;;;;;;
1958;;;;;;;;;;;;;
1959;;;;;;;;;;;;;
1960;;;;;;;;;;;;;
1961;;;;;;;;;;;;;
1962;;;;;;;;;;;;;
1963;;;;;;;;;;;;;
1964;;;;;;;;;;;;;
1965;;;;;;;;;;;;;
1966;;;;;;;;;;;;;
1967;;;;;;;;;;;;;
1968;;;;;;;;;;;;;
1969;;;;;;;;;;;;;
1970;;;;;;;;;;;;;
1971;;;;;;;;;;;;;
1972;;;;;;;;;;;;;
1973;;;;;;;;;;;;;
1974;;;;;;;;;;;;;
1975;;;;;;;;;;;;;
1976;;;;;;;;;;;;;
1977;;;;;;;;;;;;;
1978;;;;;;;;;;;;;
1979;;;;;;;;;;;;;
1980;;;;;;;;;;;;;
1981;;;;;;;;;;;;;
1982;;;;;;;;;;;;;
1983;;;;;;;;;;;;;
1984;;;;;;;;;;;;;
1985;;;;;;;;;;;;;
1986;;;;;;;;;;;;;
1987;;;;;;;;;;;;;
1988;;;;;;;;;;;;;
1989;;;;;;;;;;;;;
1990;;;;;;;;;;;;;
1991;;;;;;;;;;;;;
1992;;;;;;;;;;;;;
1993;;;;;;;;;;;;;
1994;;;;;;;;;;;;;
1995;;;;;;;;;;;;;
1996;;;;;;;;;;;;;
1997;;;;;;;;;;;;;
1998;;;;;;;;;;;;;
1999;;;;;;;;;;;;;
2000;;;;;;;;;;;;;
2001;;;;;;;;;;;;;
2002;;;;;;;;;;;;;
2003;;;;;;;;;;;;;
2004;;;;;;;;;;;;;
2005;;;;;;;;;;;;;
2006;;;;;;;;;;;;;
2007;;;;;;;;;;;;;
2008;;;;;;;;;;;;;
2009;;;;;;;;;;;;;
2010;;;;;;;;;;;;;
2011;;;;;;;;;;;;;
2012;;;;;;;;;;;;;
2013;;;;;;;;;;;;;
2014;;;;;;;;;;;;;
2015;;;;;;;;;;;;;
2016;;;;;;;;;;;;;
2017;;;;;;;;;;;;;
2018;;;;;;;;;;;;;
2019;;;;;;;;;;;;;
2020;;;;;;;;;;;;;
2021;;;;;;;;;;;;;
2022;;;;;;;;;;;;;
2023;;;;;;;;;;;;;
2024;;;;;;;;;;;;;
2025;;;;;;;;;;;;;
2026;;;;;;;;;;;;;
2027;;;;;;;;;;;;;
2028;;;;;;;;;;;;;
2029;;;;;;;;;;;;;
2030;;;;;;;;;;;;;
2031;;;;;;;;;;;;;
2032;;;;;;;;;;;;;
2033;;;;;;;;;;;;;
2034;;;;;;;;;;;;;
2035;;;;;;;;;;;;;
2036;;;;;;;;;;;;;
2037;;;;;;;;;;;;;
2038;;;;;;;;;;;;;
2039;;;;;;;;;;;;;
2040;;;;;;;;;;;;;
2041;;;;;;;;;;;;;
2042;;;;;;;;;;;;;
2043;;;;;;;;;;;;;
2044;;;;;;;;;;;;;
2045;;;;;;;;;;;;;
2046;;;;;;;;;;;;;
2047;;;;;;;;;;;;;
2048;;;;;;;;;;;;;
2049;;;;;;;;;;;;;
2050;;;;;;;;;;;;;
2051;;;;;;;;;;;;;
2052;;;;;;;;;;;;;
2053;;;;;;;;;;;;;
2054;;;;;;;;;;;;;
2055;;;;;;;;;;;;;
2056;;;;;;;;;;;;;
2057;;;;;;;;;;;;;
2058;;;;;;;;;;;;;
2059;;;;;;;;;;;;;
2060;;;;;;;;;;;;;
2061;;;;;;;;;;;;;
2062;;;;;;;;;;;;;
2063;;;;;;;;;;;;;
2064;;;;;;;;;;;;;
2065;;;;;;;;;;;;;
2066;;;;;;;;;;;;;
2067;;;;;;;;;;;;;
2068;;;;;;;;;;;;;
2069;;;;;;;;;;;;;
2070;;;;;;;;;;;;;
2071;;;;;;;;;;;;;
2072;;;;;;;;;;;;;
2073;;;;;;;;;;;;;
2074;;;;;;;;;;;;;
2075;;;;;;;;;;;;;
2076;;;;;;;;;;;;;
2077;;;;;;;;;;;;;
2078;;;;;;;;;;;;;
2079;;;;;;;;;;;;;
2080;;;;;;;;;;;;;
2081;;;;;;;;;;;;;
2082;;;;;;;;;;;;;
2083;;;;;;;;;;;;;
2084;;;;;;;;;;;;;
2085;;;;;;;;;;;;;
2086;;;;;;;;;;;;;
2087;;;;;;;;;;;;;
2088;;;;;;;;;;;;;
2089;;;;;;;;;;;;;
2090;;;;;;;;;;;;;
2091;;;;;;;;;;;;;
2092;;;;;;;;;;;;;
2093;;;;;;;;;;;;;
2094;;;;;;;;;;;;;
2095;;;;;;;;;;;;;
2096;;;;;;;;;;;;;
2097;;;;;;;;;;;;;
2098;;;;;;;;;;;;;
2099;;;;;;;;;;;;;
2100;;;;;;;;;;;;;
2101;;;;;;;;;;;;;
2102;;;;;;;;;;;;;
2103;;;;;;;;;;;;;
2104;;;;;;;;;;;;;
2105;;;;;;;;;;;;;
2106;;;;;;;;;;;;;
2107;;;;;;;;;;;;;
2108;;;;;;;;;;;;;
2109;;;;;;;;;;;;;
2110;;;;;;;;;;;;;
2111;;;;;;;;;;;;;
2112;;;;;;;;;;;;;
2113;;;;;;;;;;;;;
2114;;;;;;;;;;;;;
2115;;;;;;;;;;;;;
2116;;;;;;;;;;;;;
2117;;;;;;;;;;;;;
2118;;;;;;;;;;;;;
2119;;;;;;;;;;;;;
2120;;;;;;;;;;;;;
2121;;;;;;;;;;;;;
2122;;;;;;;;;;;;;
2123;;;;;;;;;;;;;
2124;;;;;;;;;;;;;
2125;;;;;;;;;;;;;
2126;;;;;;;;;;;;;
2127;;;;;;;;;;;;;
2128;;;;;;;;;;;;;
2129;;;;;;;;;;;;;
2130;;;;;;;;;;;;;
2131;;;;;;;;;;;;;
2132;;;;;;;;;;;;;
2133;;;;;;;;;;;;;
2134;;;;;;;;;;;;;
2135;;;;;;;;;;;;;
2136;;;;;;;;;;;;;
2137;;;;;;;;;;;;;
2138;;;;;;;;;;;;;
2139;;;;;;;;;;;;;
2140;;;;;;;;;;;;;
2141;;;;;;;;;;;;;
2142;;;;;;;;;;;;;
2143;;;;;;;;;;;;;
2144;;;;;;;;;;;;;
2145;;;;;;;;;;;;;
2146;;;;;;;;;;;;;
2147;;;;;;;;;;;;;
2148;;;;;;;;;;;;;
2149;;;;;;;;;;;;;
2150;;;;;;;;;;;;;
2151;;;;;;;;;;;;;
2152;;;;;;;;;;;;;
2153;;;;;;;;;;;;;
2154;;;;;;;;;;;;;
2155;;;;;;;;;;;;;
2156;;;;;;;;;;;;;
2157;;;;;;;;;;;;;
2158;;;;;;;;;;;;;
2159;;;;;;;;;;;;;
2160;;;;;;;;;;;;;
2161;;;;;;;;;;;;;
2162;;;;;;;;;;;;;
2163;;;;;;;;;;;;;
2164;;;;;;;;;;;;;
2165;;;;;;;;;;;;;
2166;;;;;;;;;;;;;
2167;;;;;;;;;;;;;
2168;;;;;;;;;;;;;
2169;;;;;;;;;;;;;
2170;;;;;;;;;;;;;
2171;;;;;;;;;;;;;
2172;;;;;;;;;;;;;
2173;;;;;;;;;;;;;
2174;;;;;;;;;;;;;
2175;;;;;;;;;;;;;
2176;;;;;;;;;;;;;
2177;;;;;;;;;;;;;
2178;;;;;;;;;;;;;
2179;;;;;;;;;;;;;
2180;;;;;;;;;;;;;
2181;;;;;;;;;;;;;
2182;;;;;;;;;;;;;
2183;;;;;;;;;;;;;
2184;;;;;;;;;;;;;
2185;;;;;;;;;;;;;
2186;;;;;;;;;;;;;
2187;;;;;;;;;;;;;
2188;;;;;;;;;;;;;
2189;;;;;;;;;;;;;
2190;;;;;;;;;;;;;
2191;;;;;;;;;;;;;
2192;;;;;;;;;;;;;
2193;;;;;;;;;;;;;
2194;;;;;;;;;;;;;
2195;;;;;;;;;;;;;
2196;;;;;;;;;;;;;
2197;;;;;;;;;;;;;
2198;;;;;;;;;;;;;
2199;;;;;;;;;;;;;
2200;;;;;;;;;;;;;
2201;;;;;;;;;;;;;
2202;;;;;;;;;;;;;
2203;;;;;;;;;;;;;
2204;;;;;;;;;;;;;
2205;;;;;;;;;;;;;
2206;;;;;;;;;;;;;
2207;;;;;;;;;;;;;
2208;;;;;;;;;;;;;
2209;;;;;;;;;;;;;
2210;;;;;;;;;;;;;
2211;;;;;;;;;;;;;
2212;;;;;;;;;;;;;
2213;;;;;;;;;;;;;
2214;;;;;;;;;;;;;
2215;;;;;;;;;;;;;
2216;;;;;;;;;;;;;
2217;;;;;;;;;;;;;
2218;;;;;;;;;;;;;
2219;;;;;;;;;;;;;
2220;;;;;;;;;;;;;
2221;;;;;;;;;;;;;
2222;;;;;;;;;;;;;
2223;;;;;;;;;;;;;
2224;;;;;;;;;;;;;
2225;;;;;;;;;;;;;
2226;;;;;;;;;;;;;
2227;;;;;;;;;;;;;
2228;;;;;;;;;;;;;
2229;;;;;;;;;;;;;
2230;;;;;;;;;;;;;
2231;;;;;;;;;;;;;
2232;;;;;;;;;;;;;
2233;;;;;;;;;;;;;
2234;;;;;;;;;;;;;
2235;;;;;;;;;;;;;
2236;;;;;;;;;;;;;
2237;;;;;;;;;;;;;
2238;;;;;;;;;;;;;
2239;;;;;;;;;;;;;
2240;;;;;;;;;;;;;
2241;;;;;;;;;;;;;
2242;;;;;;;;;;;;;
2243;;;;;;;;;;;;;
2244;;;;;;;;;;;;;
2245;;;;;;;;;;;;;
2246;;;;;;;;;;;;;
2247;;;;;;;;;;;;;
2248;;;;;;;;;;;;;
2249;;;;;;;;;;;;;
2250;;;;;;;;;;;;;
2251;;;;;;;;;;;;;
2252;;;;;;;;;;;;;
2253;;;;;;;;;;;;;
2254;;;;;;;;;;;;;
2255;;;;;;;;;;;;;
2256;;;;;;;;;;;;;
2257;;;;;;;;;;;;;
2258;;;;;;;;;;;;;
2259;;;;;;;;;;;;;
2260;;;;;;;;;;;;;
2261;;;;;;;;;;;;;
2262;;;;;;;;;;;;;
2263;;;;;;;;;;;;;
2264;;;;;;;;;;;;;
2265;;;;;;;;;;;;;
2266;;;;;;;;;;;;;
2267;;;;;;;;;;;;;
2268;;;;;;;;;;;;;
2269;;;;;;;;;;;;;
2270;;;;;;;;;;;;;
2271;;;;;;;;;;;;;
2272;;;;;;;;;;;;;
2273;;;;;;;;;;;;;
2274;;;;;;;;;;;;;
2275;;;;;;;;;;;;;
2276;;;;;;;;;;;;;
2277;;;;;;;;;;;;;
2278;;;;;;;;;;;;;
2279;;;;;;;;;;;;;
2280;;;;;;;;;;;;;
2281;;;;;;;;;;;;;
2282;;;;;;;;;;;;;
2283;;;;;;;;;;;;;
2284;;;;;;;;;;;;;
2285;;;;;;;;;;;;;
2286;;;;;;;;;;;;;
2287;;;;;;;;;;;;;
2288;;;;;;;;;;;;;
2289;;;;;;;;;;;;;
2290;;;;;;;;;;;;;
2291;;;;;;;;;;;;;
2292;;;;;;;;;;;;;
2293;;;;;;;;;;;;;
2294;;;;;;;;;;;;;
2295;;;;;;;;;;;;;
2296;;;;;;;;;;;;;
2297;;;;;;;;;;;;;
2298;;;;;;;;;;;;;
2299;;;;;;;;;;;;;
2300;;;;;;;;;;;;;
2301;;;;;;;;;;;;;
2302;;;;;;;;;;;;;
2303;;;;;;;;;;;;;
2304;;;;;;;;;;;;;
2305;;;;;;;;;;;;;
2306;;;;;;;;;;;;;
2307;;;;;;;;;;;;;
2308;;;;;;;;;;;;;
2309;;;;;;;;;;;;;
2310;;;;;;;;;;;;;
2311;;;;;;;;;;;;;
2312;;;;;;;;;;;;;
2313;;;;;;;;;;;;;
2314;;;;;;;;;;;;;
2315;;;;;;;;;;;;;
2316;;;;;;;;;;;;;
2317;;;;;;;;;;;;;
2318;;;;;;;;;;;;;
2319;;;;;;;;;;;;;
2320;;;;;;;;;;;;;
2321;;;;;;;;;;;;;
2322;;;;;;;;;;;;;
2323;;;;;;;;;;;;;
2324;;;;;;;;;;;;;
2325;;;;;;;;;;;;;
2326;;;;;;;;;;;;;
2327;;;;;;;;;;;;;
2328;;;;;;;;;;;;;
2329;;;;;;;;;;;;;
2330;;;;;;;;;;;;;
2331;;;;;;;;;;;;;
2332;;;;;;;;;;;;;
2333;;;;;;;;;;;;;
2334;;;;;;;;;;;;;
2335;;;;;;;;;;;;;
2336;;;;;;;;;;;;;
2337;;;;;;;;;;;;;
2338;;;;;;;;;;;;;
2339;;;;;;;;;;;;;
2340;;;;;;;;;;;;;
2341;;;;;;;;;;;;;
2342;;;;;;;;;;;;;
2343;;;;;;;;;;;;;
2344;;;;;;;;;;;;;
2345;;;;;;;;;;;;;
2346;;;;;;;;;;;;;
2347;;;;;;;;;;;;;
2348;;;;;;;;;;;;;
2349;;;;;;;;;;;;;
2350;;;;;;;;;;;;;
2351;;;;;;;;;;;;;
2352;;;;;;;;;;;;;
2353;;;;;;;;;;;;;
2354;;;;;;;;;;;;;
2355;;;;;;;;;;;;;
2356;;;;;;;;;;;;;
2357;;;;;;;;;;;;;
2358;;;;;;;;;;;;;
2359;;;;;;;;;;;;;
2360;;;;;;;;;;;;;
2361;;;;;;;;;;;;;
2362;;;;;;;;;;;;;
2363;;;;;;;;;;;;;
2364;;;;;;;;;;;;;
2365;;;;;;;;;;;;;
2366;;;;;;;;;;;;;
2367;;;;;;;;;;;;;
2368;;;;;;;;;;;;;
2369;;;;;;;;;;;;;
2370;;;;;;;;;;;;;
2371;;;;;;;;;;;;;
2372;;;;;;;;;;;;;
2373;;;;;;;;;;;;;
2374;;;;;;;;;;;;;
2375;;;;;;;;;;;;;
2376;;;;;;;;;;;;;
2377;;;;;;;;;;;;;
2378;;;;;;;;;;;;;
2379;;;;;;;;;;;;;
2380;;;;;;;;;;;;;
2381;;;;;;;;;;;;;
2382;;;;;;;;;;;;;
2383;;;;;;;;;;;;;
2384;;;;;;;;;;;;;
2385;;;;;;;;;;;;;
2386;;;;;;;;;;;;;
2387;;;;;;;;;;;;;
2388;;;;;;;;;;;;;
2389;;;;;;;;;;;;;
2390;;;;;;;;;;;;;
2391;;;;;;;;;;;;;
2392;;;;;;;;;;;;;
2393;;;;;;;;;;;;;
2394;;;;;;;;;;;;;
2395;;;;;;;;;;;;;
2396;;;;;;;;;;;;;
2397;;;;;;;;;;;;;
2398;;;;;;;;;;;;;
2399;;;;;;;;;;;;;
2400;;;;;;;;;;;;;
2401;;;;;;;;;;;;;
2402;;;;;;;;;;;;;
2403;;;;;;;;;;;;;
2404;;;;;;;;;;;;;
2405;;;;;;;;;;;;;
2406;;;;;;;;;;;;;
2407;;;;;;;;;;;;;
2408;;;;;;;;;;;;;
2409;;;;;;;;;;;;;
2410;;;;;;;;;;;;;
2411;;;;;;;;;;;;;
2412;;;;;;;;;;;;;
2413;;;;;;;;;;;;;
2414;;;;;;;;;;;;;
2415;;;;;;;;;;;;;
2416;;;;;;;;;;;;;
2417;;;;;;;;;;;;;
2418;;;;;;;;;;;;;
2419;;;;;;;;;;;;;
2420;;;;;;;;;;;;;
2421;;;;;;;;;;;;;
2422;;;;;;;;;;;;;
2423;;;;;;;;;;;;;
2424;;;;;;;;;;;;;
2425;;;;;;;;;;;;;
2426;;;;;;;;;;;;;
2427;;;;;;;;;;;;;
2428;;;;;;;;;;;;;
2429;;;;;;;;;;;;;
2430;;;;;;;;;;;;;
2431;;;;;;;;;;;;;
2432;;;;;;;;;;;;;
2433;;;;;;;;;;;;;
2434;;;;;;;;;;;;;
2435;;;;;;;;;;;;;
2436;;;;;;;;;;;;;
2437;;;;;;;;;;;;;
2438;;;;;;;;;;;;;
2439;;;;;;;;;;;;;
2440;;;;;;;;;;;;;
2441;;;;;;;;;;;;;
2442;;;;;;;;;;;;;
2443;;;;;;;;;;;;;
2444;;;;;;;;;;;;;
2445;;;;;;;;;;;;;
2446;;;;;;;;;;;;;
2447;;;;;;;;;;;;;
2448;;;;;;;;;;;;;
2449;;;;;;;;;;;;;
2450;;;;;;;;;;;;;
2451;;;;;;;;;;;;;
2452;;;;;;;;;;;;;
2453;;;;;;;;;;;;;
2454;;;;;;;;;;;;;
2455;;;;;;;;;;;;;
2456;;;;;;;;;;;;;
2457;;;;;;;;;;;;;
2458;;;;;;;;;;;;;
2459;;;;;;;;;;;;;
2460;;;;;;;;;;;;;
2461;;;;;;;;;;;;;
2462;;;;;;;;;;;;;
2463;;;;;;;;;;;;;
2464;;;;;;;;;;;;;
2465;;;;;;;;;;;;;
2466;;;;;;;;;;;;;
2467;;;;;;;;;;;;;
2468;;;;;;;;;;;;;
2469;;;;;;;;;;;;;
2470;;;;;;;;;;;;;
2471;;;;;;;;;;;;;
2472;;;;;;;;;;;;;
2473;;;;;;;;;;;;;
2474;;;;;;;;;;;;;
2475;;;;;;;;;;;;;
2476;;;;;;;;;;;;;
2477;;;;;;;;;;;;;
2478;;;;;;;;;;;;;
2479;;;;;;;;;;;;;
2480;;;;;;;;;;;;;
2481;;;;;;;;;;;;;
2482;;;;;;;;;;;;;
2483;;;;;;;;;;;;;
2484;;;;;;;;;;;;;
2485;;;;;;;;;;;;;
2486;;;;;;;;;;;;;
2487;;;;;;;;;;;;;
2488;;;;;;;;;;;;;
2489;;;;;;;;;;;;;
2490;;;;;;;;;;;;;
2491;;;;;;;;;;;;;
2492;;;;;;;;;;;;;
2493;;;;;;;;;;;;;
2494;;;;;;;;;;;;;
2495;;;;;;;;;;;;;
