
Index;Column 2 (V);Column 3 (V);Column 4 (V);Column 5 (V);Column 6 (V/s);Column 7 (V);Time (s);Potential applied (V);WE(1).Current (A);WE(1).Potential (V);Scan;Column 13 (RPM);ω (rad/s)
1;0;0.01;-1;-0.01;0.01;-0.00244;17216.7824235318;-0.0146484375;5.938720703125E-07;-0.014520263671875;3;1800;188.495559215388
2;;;;;;;17217.0265645312;-0.01708984375;5.3924560546875E-07;-0.0168060302734375;3;;
3;;;;;;;17217.2707055306;-0.01953125;4.559326171875E-07;-0.0192230224609375;3;;
4;;;;;;;17217.51484653;-0.02197265625;3.50341796875E-07;-0.0217376708984375;3;;
5;;;;;;;17217.7589875293;-0.0244140625;2.947998046875E-07;-0.024163818359375;3;;
6;;;;;;;17218.0031285287;-0.02685546875;2.069091796875E-07;-0.026544189453125;3;;
7;;;;;;;17218.2472695281;-0.029296875;1.531982421875E-07;-0.028997802734375;3;;
8;;;;;;;17218.4914105275;-0.03173828125;9.918212890625E-08;-0.031427001953125;3;;
9;;;;;;;17218.7355515269;-0.0341796875;3.11279296875E-08;-0.033892822265625;3;;
10;;;;;;;17218.9796925263;-0.03662109375;-3.143310546875E-08;-0.036309814453125;3;;
11;;;;;;;17219.2238335256;-0.0390625;-7.232666015625E-08;-0.0387298583984375;3;;
12;;;;;;;17219.467974525;-0.04150390625;-1.715087890625E-07;-0.0410308837890625;3;;
13;;;;;;;17219.7121155244;-0.0439453125;-2.001953125E-07;-0.04361572265625;3;;
14;;;;;;;17219.9562565238;-0.04638671875;-2.69775390625E-07;-0.0460357666015625;3;;
15;;;;;;;17220.2003975232;-0.048828125;-3.326416015625E-07;-0.04854736328125;3;;
16;;;;;;;17220.4445385226;-0.05126953125;-4.1290283203125E-07;-0.050933837890625;3;;
17;;;;;;;17220.6886795219;-0.0537109375;-4.8492431640625E-07;-0.05340576171875;3;;
18;;;;;;;17220.9328205213;-0.05615234375;-5.5419921875E-07;-0.055938720703125;3;;
19;;;;;;;17221.1769615207;-0.05859375;-6.2591552734375E-07;-0.058319091796875;3;;
20;;;;;;;17221.4211025201;-0.06103515625;-6.744384765625E-07;-0.0606689453125;3;;
21;;;;;;;17221.6652435195;-0.0634765625;-7.6202392578125E-07;-0.0633544921875;3;;
22;;;;;;;17221.9093845189;-0.06591796875;-8.331298828125E-07;-0.06549072265625;3;;
23;;;;;;;17222.1535255182;-0.068359375;-9.2987060546875E-07;-0.067962646484375;3;;
24;;;;;;;17222.3976665176;-0.07080078125;-9.9151611328125E-07;-0.070404052734375;3;;
25;;;;;;;17222.641807517;-0.0732421875;-1.097412109375E-06;-0.0728759765625;3;;
26;;;;;;;17222.8859485164;-0.07568359375;-1.1810302734375E-06;-0.07525634765625;3;;
27;;;;;;;17223.1300895158;-0.078125;-1.270751953125E-06;-0.07769775390625;3;;
28;;;;;;;17223.3742305152;-0.08056640625;-1.38580322265625E-06;-0.080108642578125;3;;
29;;;;;;;17223.6183715145;-0.0830078125;-1.47125244140625E-06;-0.082550048828125;3;;
30;;;;;;;17223.8625125139;-0.08544921875;-1.5728759765625E-06;-0.08502197265625;3;;
31;;;;;;;17224.1066535133;-0.087890625;-1.72515869140625E-06;-0.087371826171875;3;;
32;;;;;;;17224.3507945127;-0.09033203125;-1.80908203125E-06;-0.08978271484375;3;;
33;;;;;;;17224.5949355121;-0.0927734375;-1.93267822265625E-06;-0.092376708984375;3;;
34;;;;;;;17224.8390765115;-0.09521484375;-2.1038818359375E-06;-0.094573974609375;3;;
35;;;;;;;17225.0832175108;-0.09765625;-2.23846435546875E-06;-0.09698486328125;3;;
36;;;;;;;17225.3273585102;-0.10009765625;-2.384033203125E-06;-0.099456787109375;3;;
37;;;;;;;17225.5714995096;-0.1025390625;-2.57659912109375E-06;-0.101898193359375;3;;
38;;;;;;;17225.815640509;-0.10498046875;-2.72491455078125E-06;-0.104248046875;3;;
39;;;;;;;17226.0597815084;-0.107421875;-2.92724609375E-06;-0.10675048828125;3;;
40;;;;;;;17226.3039225078;-0.10986328125;-3.1488037109375E-06;-0.109100341796875;3;;
41;;;;;;;17226.5480635071;-0.1123046875;-3.3453369140625E-06;-0.111907958984375;3;;
42;;;;;;;17226.7922045065;-0.11474609375;-3.55010986328125E-06;-0.11431884765625;3;;
43;;;;;;;17227.0363455059;-0.1171875;-3.826904296875E-06;-0.116729736328125;3;;
44;;;;;;;17227.2804865053;-0.11962890625;-4.083251953125E-06;-0.119232177734375;3;;
45;;;;;;;17227.5246275047;-0.1220703125;-4.339599609375E-06;-0.121673583984375;3;;
46;;;;;;;17227.7687685041;-0.12451171875;-4.6630859375E-06;-0.124114990234375;3;;
47;;;;;;;17228.0129095035;-0.126953125;-4.9530029296875E-06;-0.12652587890625;3;;
48;;;;;;;17228.2570505028;-0.12939453125;-5.291748046875E-06;-0.128936767578125;3;;
49;;;;;;;17228.5011915022;-0.1318359375;-5.6610107421875E-06;-0.131378173828125;3;;
50;;;;;;;17228.7453325016;-0.13427734375;-6.0333251953125E-06;-0.133819580078125;3;;
51;;;;;;;17228.989473501;-0.13671875;-6.4605712890625E-06;-0.13629150390625;3;;
52;;;;;;;17229.2336145004;-0.13916015625;-6.884765625E-06;-0.138671875;3;;
53;;;;;;;17229.4777554997;-0.1416015625;-7.305908203125E-06;-0.141204833984375;3;;
54;;;;;;;17229.7218964991;-0.14404296875;-7.8033447265625E-06;-0.143524169921875;3;;
55;;;;;;;17229.9660374985;-0.146484375;-8.3709716796875E-06;-0.14599609375;3;;
56;;;;;;;17230.2101784979;-0.14892578125;-8.8653564453125E-06;-0.148406982421875;3;;
57;;;;;;;17230.4543194973;-0.1513671875;-9.4757080078125E-06;-0.15081787109375;3;;
58;;;;;;;17230.6984604967;-0.15380859375;-1.011962890625E-05;-0.1533203125;3;;
59;;;;;;;17230.9426014961;-0.15625;-1.07818603515625E-05;-0.155670166015625;3;;
60;;;;;;;17231.1867424954;-0.15869140625;-1.1517333984375E-05;-0.158203125;3;;
61;;;;;;;17231.4308834948;-0.1611328125;-1.22650146484375E-05;-0.160614013671875;3;;
62;;;;;;;17231.6750244942;-0.16357421875;-1.30584716796875E-05;-0.1629638671875;3;;
63;;;;;;;17231.9191654936;-0.166015625;-1.39312744140625E-05;-0.1654052734375;3;;
64;;;;;;;17232.163306493;-0.16845703125;-1.48284912109375E-05;-0.167755126953125;3;;
65;;;;;;;17232.4074474924;-0.1708984375;-1.580810546875E-05;-0.170196533203125;3;;
66;;;;;;;17232.6515884917;-0.17333984375;-1.688232421875E-05;-0.172698974609375;3;;
67;;;;;;;17232.8957294911;-0.17578125;-1.79595947265625E-05;-0.175140380859375;3;;
68;;;;;;;17233.1398704905;-0.17822265625;-1.90948486328125E-05;-0.177459716796875;3;;
69;;;;;;;17233.3840114899;-0.1806640625;-2.0391845703125E-05;-0.17999267578125;3;;
70;;;;;;;17233.6281524893;-0.18310546875;-2.1661376953125E-05;-0.182403564453125;3;;
71;;;;;;;17233.8722934887;-0.185546875;-2.3095703125E-05;-0.18487548828125;3;;
72;;;;;;;17234.116434488;-0.18798828125;-2.459716796875E-05;-0.187225341796875;3;;
73;;;;;;;17234.3605754874;-0.1904296875;-2.6202392578125E-05;-0.189605712890625;3;;
74;;;;;;;17234.6047164868;-0.19287109375;-2.7850341796875E-05;-0.191986083984375;3;;
75;;;;;;;17234.8488574862;-0.1953125;-2.9681396484375E-05;-0.194488525390625;3;;
76;;;;;;;17235.0929984856;-0.19775390625;-3.15826416015625E-05;-0.196868896484375;3;;
77;;;;;;;17235.337139485;-0.2001953125;-3.3575439453125E-05;-0.199676513671875;3;;
78;;;;;;;17235.5812804843;-0.20263671875;-3.58062744140625E-05;-0.20208740234375;3;;
79;;;;;;;17235.8254214837;-0.205078125;-3.8055419921875E-05;-0.204498291015625;3;;
80;;;;;;;17236.0695624831;-0.20751953125;-4.04815673828125E-05;-0.206878662109375;3;;
81;;;;;;;17236.3137034825;-0.2099609375;-4.31915283203125E-05;-0.209381103515625;3;;
82;;;;;;;17236.5578444819;-0.21240234375;-4.59259033203125E-05;-0.211822509765625;3;;
83;;;;;;;17236.8019854813;-0.21484375;-4.8797607421875E-05;-0.2142333984375;3;;
84;;;;;;;17237.0461264806;-0.21728515625;-5.2032470703125E-05;-0.2166748046875;3;;
85;;;;;;;17237.29026748;-0.2197265625;-5.535888671875E-05;-0.219024658203125;3;;
86;;;;;;;17237.5344084794;-0.22216796875;-5.8837890625E-05;-0.221527099609375;3;;
87;;;;;;;17237.7785494788;-0.224609375;-6.2744140625E-05;-0.2239990234375;3;;
88;;;;;;;17238.0226904782;-0.22705078125;-6.67724609375E-05;-0.226409912109375;3;;
89;;;;;;;17238.2668314776;-0.2294921875;-7.09228515625E-05;-0.228851318359375;3;;
90;;;;;;;17238.5109724769;-0.23193359375;-7.562255859375E-05;-0.2313232421875;3;;
91;;;;;;;17238.7551134763;-0.234375;-8.04443359375E-05;-0.23370361328125;3;;
92;;;;;;;17238.9992544757;-0.23681640625;-8.5479736328125E-05;-0.236175537109375;3;;
93;;;;;;;17239.2433954751;-0.2392578125;-9.1064453125E-05;-0.238555908203125;3;;
94;;;;;;;17239.4875364745;-0.24169921875;-9.686279296875E-05;-0.241058349609375;3;;
95;;;;;;;17239.7316774739;-0.244140625;-0.00010284423828125;-0.243408203125;3;;
96;;;;;;;17239.9758184732;-0.24658203125;-0.000109527587890625;-0.245849609375;3;;
97;;;;;;;17240.2199594726;-0.2490234375;-0.000116485595703125;-0.248321533203125;3;;
98;;;;;;;17240.464100472;-0.25146484375;-0.000123626708984375;-0.250701904296875;3;;
99;;;;;;;17240.7082414714;-0.25390625;-0.000131591796875;-0.253143310546875;3;;
100;;;;;;;17240.9523824708;-0.25634765625;-0.000139892578125;-0.255615234375;3;;
101;;;;;;;17241.1965234702;-0.2587890625;-0.000148223876953125;-0.257965087890625;3;;
102;;;;;;;17241.4406644695;-0.26123046875;-0.0001575927734375;-0.260467529296875;3;;
103;;;;;;;17241.6848054689;-0.263671875;-0.00016729736328125;-0.262939453125;3;;
104;;;;;;;17241.9289464683;-0.26611328125;-0.00017706298828125;-0.2652587890625;3;;
105;;;;;;;17242.1730874677;-0.2685546875;-0.0001878662109375;-0.267730712890625;3;;
106;;;;;;;17242.4172284671;-0.27099609375;-0.000199188232421875;-0.270172119140625;3;;
107;;;;;;;17242.6613694665;-0.2734375;-0.00021044921875;-0.272552490234375;3;;
108;;;;;;;17242.9055104658;-0.27587890625;-0.000222747802734375;-0.27496337890625;3;;
109;;;;;;;17243.1496514652;-0.2783203125;-0.000235626220703125;-0.277313232421875;3;;
110;;;;;;;17243.3937924646;-0.28076171875;-0.000248382568359375;-0.27978515625;3;;
111;;;;;;;17243.637933464;-0.283203125;-0.000262359619140625;-0.2822265625;3;;
112;;;;;;;17243.8820744634;-0.28564453125;-0.000276947021484375;-0.284576416015625;3;;
113;;;;;;;17244.1262154628;-0.2880859375;-0.000291229248046875;-0.287078857421875;3;;
114;;;;;;;17244.3703564622;-0.29052734375;-0.00030670166015625;-0.2894287109375;3;;
115;;;;;;;17244.6144974615;-0.29296875;-0.000322967529296875;-0.29229736328125;3;;
116;;;;;;;17244.8586384609;-0.29541015625;-0.000338653564453125;-0.294647216796875;3;;
117;;;;;;;17245.1027794603;-0.2978515625;-0.00035552978515625;-0.297119140625;3;;
118;;;;;;;17245.3469204597;-0.30029296875;-0.0003731689453125;-0.299530029296875;3;;
119;;;;;;;17245.5910614591;-0.302734375;-0.00039013671875;-0.302001953125;3;;
120;;;;;;;17245.8352024585;-0.30517578125;-0.000408203125;-0.304412841796875;3;;
121;;;;;;;17246.0793434578;-0.3076171875;-0.0004271240234375;-0.306854248046875;3;;
122;;;;;;;17246.3234844572;-0.31005859375;-0.000445068359375;-0.309356689453125;3;;
123;;;;;;;17246.5676254566;-0.3125;-0.000464141845703125;-0.311737060546875;3;;
124;;;;;;;17246.811766456;-0.31494140625;-0.000484222412109375;-0.314178466796875;3;;
125;;;;;;;17247.0559074554;-0.3173828125;-0.00050262451171875;-0.31671142578125;3;;
126;;;;;;;17247.3000484548;-0.31982421875;-0.0005224609375;-0.319122314453125;3;;
127;;;;;;;17247.5441894541;-0.322265625;-0.00054290771484375;-0.32147216796875;3;;
128;;;;;;;17247.7883304535;-0.32470703125;-0.00056243896484375;-0.323944091796875;3;;
129;;;;;;;17248.0324714529;-0.3271484375;-0.000582275390625;-0.326385498046875;3;;
130;;;;;;;17248.2766124523;-0.32958984375;-0.00060333251953125;-0.328826904296875;3;;
131;;;;;;;17248.5207534517;-0.33203125;-0.00062286376953125;-0.331268310546875;3;;
132;;;;;;;17248.7648944511;-0.33447265625;-0.0006427001953125;-0.33367919921875;3;;
133;;;;;;;17249.0090354504;-0.3369140625;-0.00066375732421875;-0.336090087890625;3;;
134;;;;;;;17249.2531764498;-0.33935546875;-0.00068328857421875;-0.33856201171875;3;;
135;;;;;;;17249.4973174492;-0.341796875;-0.000703125;-0.340972900390625;3;;
136;;;;;;;17249.7414584486;-0.34423828125;-0.000723876953125;-0.343475341796875;3;;
137;;;;;;;17249.985599448;-0.3466796875;-0.0007427978515625;-0.345916748046875;3;;
138;;;;;;;17250.2297404474;-0.34912109375;-0.00076202392578125;-0.34832763671875;3;;
139;;;;;;;17250.4738814467;-0.3515625;-0.00078216552734375;-0.3507080078125;3;;
140;;;;;;;17250.7180224461;-0.35400390625;-0.0008001708984375;-0.353118896484375;3;;
141;;;;;;;17250.9621634455;-0.3564453125;-0.0008184814453125;-0.355560302734375;3;;
142;;;;;;;17251.2063044449;-0.35888671875;-0.00083770751953125;-0.3580322265625;3;;
143;;;;;;;17251.4504454443;-0.361328125;-0.0008551025390625;-0.36041259765625;3;;
144;;;;;;;17251.6945864437;-0.36376953125;-0.0008721923828125;-0.36285400390625;3;;
145;;;;;;;17251.938727443;-0.3662109375;-0.00089019775390625;-0.365325927734375;3;;
146;;;;;;;17252.1828684424;-0.36865234375;-0.0009063720703125;-0.367767333984375;3;;
147;;;;;;;17252.4270094418;-0.37109375;-0.0009222412109375;-0.3702392578125;3;;
148;;;;;;;17252.6711504412;-0.37353515625;-0.00093902587890625;-0.37261962890625;3;;
149;;;;;;;17252.9152914406;-0.3759765625;-0.0009539794921875;-0.37506103515625;3;;
150;;;;;;;17253.15943244;-0.37841796875;-0.000968017578125;-0.377471923828125;3;;
151;;;;;;;17253.4035734393;-0.380859375;-0.0009832763671875;-0.37994384765625;3;;
152;;;;;;;17253.6477144387;-0.38330078125;-0.0009967041015625;-0.382354736328125;3;;
153;;;;;;;17253.8918554381;-0.3857421875;-0.001009521484375;-0.384796142578125;3;;
154;;;;;;;17254.1359964375;-0.38818359375;-0.00102325439453125;-0.38726806640625;3;;
155;;;;;;;17254.3801374369;-0.390625;-0.00103546142578125;-0.38970947265625;3;;
156;;;;;;;17254.6242784363;-0.39306640625;-0.00104644775390625;-0.392181396484375;3;;
157;;;;;;;17254.8684194356;-0.3955078125;-0.001058349609375;-0.39459228515625;3;;
158;;;;;;;17255.112560435;-0.39794921875;-0.00106903076171875;-0.39703369140625;3;;
159;;;;;;;17255.3567014344;-0.400390625;-0.0010791015625;-0.3994140625;3;;
160;;;;;;;17255.6008424338;-0.40283203125;-0.00108978271484375;-0.40191650390625;3;;
161;;;;;;;17255.8449834332;-0.4052734375;-0.00109954833984375;-0.404296875;3;;
162;;;;;;;17256.0891244326;-0.40771484375;-0.0011077880859375;-0.40673828125;3;;
163;;;;;;;17256.3332654319;-0.41015625;-0.0011175537109375;-0.409210205078125;3;;
164;;;;;;;17256.5774064313;-0.41259765625;-0.0011260986328125;-0.411590576171875;3;;
165;;;;;;;17256.8215474307;-0.4150390625;-0.00113311767578125;-0.4140625;3;;
166;;;;;;;17257.0656884301;-0.41748046875;-0.001141357421875;-0.416473388671875;3;;
167;;;;;;;17257.3098294295;-0.419921875;-0.00114898681640625;-0.41888427734375;3;;
168;;;;;;;17257.5539704289;-0.42236328125;-0.00115570068359375;-0.42138671875;3;;
169;;;;;;;17257.7981114282;-0.4248046875;-0.001163330078125;-0.423828125;3;;
170;;;;;;;17258.0422524276;-0.42724609375;-0.001170654296875;-0.42626953125;3;;
171;;;;;;;17258.286393427;-0.4296875;-0.0011761474609375;-0.42877197265625;3;;
172;;;;;;;17258.5305344264;-0.43212890625;-0.001182861328125;-0.431121826171875;3;;
173;;;;;;;17258.7746754258;-0.4345703125;-0.00118896484375;-0.43353271484375;3;;
174;;;;;;;17259.0188164252;-0.43701171875;-0.00119354248046875;-0.435943603515625;3;;
175;;;;;;;17259.2629574246;-0.439453125;-0.001199951171875;-0.4383544921875;3;;
176;;;;;;;17259.5070984239;-0.44189453125;-0.0012060546875;-0.440826416015625;3;;
177;;;;;;;17259.7512394233;-0.4443359375;-0.0012103271484375;-0.443267822265625;3;;
178;;;;;;;17259.9953804227;-0.44677734375;-0.00121551513671875;-0.44573974609375;3;;
179;;;;;;;17260.2395214221;-0.44921875;-0.001220703125;-0.448150634765625;3;;
180;;;;;;;17260.4836624215;-0.45166015625;-0.00122467041015625;-0.45062255859375;3;;
181;;;;;;;17260.7278034209;-0.4541015625;-0.0012298583984375;-0.453033447265625;3;;
182;;;;;;;17260.9719444202;-0.45654296875;-0.00123443603515625;-0.455474853515625;3;;
183;;;;;;;17261.2160854196;-0.458984375;-0.00123748779296875;-0.457916259765625;3;;
184;;;;;;;17261.460226419;-0.46142578125;-0.00124237060546875;-0.460357666015625;3;;
185;;;;;;;17261.7043674184;-0.4638671875;-0.0012469482421875;-0.4627685546875;3;;
186;;;;;;;17261.9485084178;-0.46630859375;-0.00125;-0.46527099609375;3;;
187;;;;;;;17262.1926494172;-0.46875;-0.00125335693359375;-0.467681884765625;3;;
188;;;;;;;17262.4367904165;-0.47119140625;-0.0012579345703125;-0.4700927734375;3;;
189;;;;;;;17262.6809314159;-0.4736328125;-0.0012603759765625;-0.4725341796875;3;;
190;;;;;;;17262.9250724153;-0.47607421875;-0.00126434326171875;-0.475006103515625;3;;
191;;;;;;;17263.1692134147;-0.478515625;-0.001268310546875;-0.4774169921875;3;;
192;;;;;;;17263.4133544141;-0.48095703125;-0.00126983642578125;-0.479827880859375;3;;
193;;;;;;;17263.6574954135;-0.4833984375;-0.0012725830078125;-0.4822998046875;3;;
194;;;;;;;17263.9016364128;-0.48583984375;-0.00127593994140625;-0.4847412109375;3;;
195;;;;;;;17264.1457774122;-0.48828125;-0.0012786865234375;-0.487213134765625;3;;
196;;;;;;;17264.3899184116;-0.49072265625;-0.00128143310546875;-0.48956298828125;3;;
197;;;;;;;17264.634059411;-0.4931640625;-0.001285400390625;-0.4920654296875;3;;
198;;;;;;;17264.8782004104;-0.49560546875;-0.00128692626953125;-0.494476318359375;3;;
199;;;;;;;17265.1223414098;-0.498046875;-0.0012884521484375;-0.49688720703125;3;;
200;;;;;;;17265.3664824091;-0.50048828125;-0.001292724609375;-0.499298095703125;3;;
201;;;;;;;17265.6106234085;-0.5029296875;-0.00129364013671875;-0.50177001953125;3;;
202;;;;;;;17265.8547644079;-0.50537109375;-0.001295166015625;-0.504241943359375;3;;
203;;;;;;;17266.0989054073;-0.5078125;-0.0012994384765625;-0.50665283203125;3;;
204;;;;;;;17266.3430464067;-0.51025390625;-0.00130035400390625;-0.50909423828125;3;;
205;;;;;;;17266.5871874061;-0.5126953125;-0.00130218505859375;-0.511505126953125;3;;
206;;;;;;;17266.8313284054;-0.51513671875;-0.00130462646484375;-0.514007568359375;3;;
207;;;;;;;17267.0754694048;-0.517578125;-0.00130615234375;-0.516326904296875;3;;
208;;;;;;;17267.3196104042;-0.52001953125;-0.00130706787109375;-0.518829345703125;3;;
209;;;;;;;17267.5637514036;-0.5224609375;-0.00131103515625;-0.521270751953125;3;;
210;;;;;;;17267.807892403;-0.52490234375;-0.001312255859375;-0.523712158203125;3;;
211;;;;;;;17268.0520334024;-0.52734375;-0.0013134765625;-0.526123046875;3;;
212;;;;;;;17268.2961744017;-0.52978515625;-0.00131591796875;-0.528564453125;3;;
213;;;;;;;17268.5403154011;-0.5322265625;-0.00131744384765625;-0.530975341796875;3;;
214;;;;;;;17268.7844564005;-0.53466796875;-0.00131744384765625;-0.53350830078125;3;;
215;;;;;;;17269.0285973999;-0.537109375;-0.00132080078125;-0.535858154296875;3;;
216;;;;;;;17269.2727383993;-0.53955078125;-0.00132080078125;-0.53839111328125;3;;
217;;;;;;;17269.5168793987;-0.5419921875;-0.00132232666015625;-0.540740966796875;3;;
218;;;;;;;17269.761020398;-0.54443359375;-0.00132476806640625;-0.543212890625;3;;
219;;;;;;;17270.0051613974;-0.546875;-0.00132598876953125;-0.545684814453125;3;;
220;;;;;;;17270.2493023968;-0.54931640625;-0.00132598876953125;-0.548095703125;3;;
221;;;;;;;17270.4934433962;-0.5517578125;-0.00132843017578125;-0.550537109375;3;;
222;;;;;;;17270.7375843956;-0.55419921875;-0.0013287353515625;-0.552947998046875;3;;
223;;;;;;;17270.981725395;-0.556640625;-0.00132904052734375;-0.555389404296875;3;;
224;;;;;;;17271.2258663943;-0.55908203125;-0.0013311767578125;-0.557769775390625;3;;
225;;;;;;;17271.4700073937;-0.5615234375;-0.00133270263671875;-0.560272216796875;3;;
226;;;;;;;17271.7141483931;-0.56396484375;-0.00133331298828125;-0.56268310546875;3;;
227;;;;;;;17271.9582893925;-0.56640625;-0.0013323974609375;-0.565155029296875;3;;
228;;;;;;;17272.2024303919;-0.56884765625;-0.00133453369140625;-0.56756591796875;3;;
229;;;;;;;17272.4465713913;-0.5712890625;-0.0013360595703125;-0.57000732421875;3;;
230;;;;;;;17272.6907123906;-0.57373046875;-0.001337890625;-0.57244873046875;3;;
231;;;;;;;17272.93485339;-0.576171875;-0.0013385009765625;-0.57489013671875;3;;
232;;;;;;;17273.1789943894;-0.57861328125;-0.00133819580078125;-0.57733154296875;3;;
233;;;;;;;17273.4231353888;-0.5810546875;-0.00133941650390625;-0.579833984375;3;;
234;;;;;;;17273.6672763882;-0.58349609375;-0.001341552734375;-0.58221435546875;3;;
235;;;;;;;17273.9114173876;-0.5859375;-0.0013397216796875;-0.584625244140625;3;;
236;;;;;;;17274.1555583869;-0.58837890625;-0.0013421630859375;-0.587066650390625;3;;
237;;;;;;;17274.3996993863;-0.5908203125;-0.00134307861328125;-0.589508056640625;3;;
238;;;;;;;17274.6438403857;-0.59326171875;-0.0013433837890625;-0.591949462890625;3;;
239;;;;;;;17274.8879813851;-0.595703125;-0.00134429931640625;-0.594390869140625;3;;
240;;;;;;;17275.1321223845;-0.59814453125;-0.00134429931640625;-0.5968017578125;3;;
241;;;;;;;17275.3762633839;-0.6005859375;-0.001343994140625;-0.599212646484375;3;;
242;;;;;;;17275.6204043833;-0.60302734375;-0.00134521484375;-0.601654052734375;3;;
243;;;;;;;17275.8645453826;-0.60546875;-0.00134674072265625;-0.6041259765625;3;;
244;;;;;;;17276.108686382;-0.60791015625;-0.00134521484375;-0.606597900390625;3;;
245;;;;;;;17276.3528273814;-0.6103515625;-0.00134613037109375;-0.609039306640625;3;;
246;;;;;;;17276.5969683808;-0.61279296875;-0.00134674072265625;-0.611419677734375;3;;
247;;;;;;;17276.8411093802;-0.615234375;-0.0013458251953125;-0.6138916015625;3;;
248;;;;;;;17277.0852503796;-0.61767578125;-0.0013482666015625;-0.616302490234375;3;;
249;;;;;;;17277.3293913789;-0.6201171875;-0.00134857177734375;-0.618743896484375;3;;
250;;;;;;;17277.5735323783;-0.62255859375;-0.00134613037109375;-0.62115478515625;3;;
251;;;;;;;17277.8176733777;-0.625;-0.00134735107421875;-0.623626708984375;3;;
252;;;;;;;17278.0618143771;-0.62744140625;-0.0013482666015625;-0.6260986328125;3;;
253;;;;;;;17278.3059553765;-0.6298828125;-0.00134613037109375;-0.628570556640625;3;;
254;;;;;;;17278.5500963759;-0.63232421875;-0.00134674072265625;-0.63092041015625;3;;
255;;;;;;;17278.7942373752;-0.634765625;-0.001348876953125;-0.6334228515625;3;;
256;;;;;;;17279.0383783746;-0.63720703125;-0.00134735107421875;-0.635833740234375;3;;
257;;;;;;;17279.282519374;-0.6396484375;-0.00134765625;-0.6383056640625;3;;
258;;;;;;;17279.5266603734;-0.64208984375;-0.0013494873046875;-0.6407470703125;3;;
259;;;;;;;17279.7708013728;-0.64453125;-0.00134735107421875;-0.6431884765625;3;;
260;;;;;;;17280.0149423722;-0.64697265625;-0.00134735107421875;-0.6456298828125;3;;
261;;;;;;;17280.2590833715;-0.6494140625;-0.0013482666015625;-0.648040771484375;3;;
262;;;;;;;17280.5032243709;-0.65185546875;-0.00134613037109375;-0.6505126953125;3;;
263;;;;;;;17280.7473653703;-0.654296875;-0.00134674072265625;-0.652923583984375;3;;
264;;;;;;;17280.9915063697;-0.65673828125;-0.00134857177734375;-0.6553955078125;3;;
265;;;;;;;17281.2356473691;-0.6591796875;-0.00134613037109375;-0.657806396484375;3;;
266;;;;;;;17281.4797883685;-0.66162109375;-0.001346435546875;-0.660308837890625;3;;
267;;;;;;;17281.7239293678;-0.6640625;-0.00134735107421875;-0.662750244140625;3;;
268;;;;;;;17281.9680703672;-0.66650390625;-0.0013446044921875;-0.6651611328125;3;;
269;;;;;;;17282.2122113666;-0.6689453125;-0.00134429931640625;-0.667510986328125;3;;
270;;;;;;;17282.456352366;-0.67138671875;-0.00134552001953125;-0.6700439453125;3;;
271;;;;;;;17282.7004933654;-0.673828125;-0.0013433837890625;-0.67236328125;3;;
272;;;;;;;17282.9446343648;-0.67626953125;-0.00134307861328125;-0.674896240234375;3;;
273;;;;;;;17283.1887753641;-0.6787109375;-0.00134368896484375;-0.67730712890625;3;;
274;;;;;;;17283.4329163635;-0.68115234375;-0.001341552734375;-0.67974853515625;3;;
275;;;;;;;17283.6770573629;-0.68359375;-0.00134063720703125;-0.682159423828125;3;;
276;;;;;;;17283.9211983623;-0.68603515625;-0.00134063720703125;-0.684661865234375;3;;
277;;;;;;;17284.1653393617;-0.6884765625;-0.0013409423828125;-0.687103271484375;3;;
278;;;;;;;17284.4094803611;-0.69091796875;-0.001337890625;-0.689483642578125;3;;
279;;;;;;;17284.6536213604;-0.693359375;-0.00134002685546875;-0.691986083984375;3;;
280;;;;;;;17284.8977623598;-0.69580078125;-0.00133880615234375;-0.6944580078125;3;;
281;;;;;;;17285.1419033592;-0.6982421875;-0.0013385009765625;-0.69683837890625;3;;
282;;;;;;;17285.3860443586;-0.70068359375;-0.0013360595703125;-0.699310302734375;3;;
283;;;;;;;17285.630185358;-0.703125;-0.00133514404296875;-0.701812744140625;3;;
284;;;;;;;17285.8743263574;-0.70556640625;-0.001336669921875;-0.7042236328125;3;;
285;;;;;;;17286.1184673567;-0.7080078125;-0.00133544921875;-0.706634521484375;3;;
286;;;;;;;17286.3626083561;-0.71044921875;-0.0013330078125;-0.7091064453125;3;;
287;;;;;;;17286.6067493555;-0.712890625;-0.00133209228515625;-0.71148681640625;3;;
288;;;;;;;17286.8508903549;-0.71533203125;-0.00133209228515625;-0.71392822265625;3;;
289;;;;;;;17287.0950313543;-0.7177734375;-0.00133148193359375;-0.71636962890625;3;;
290;;;;;;;17287.3391723537;-0.72021484375;-0.0013287353515625;-0.71875;3;;
291;;;;;;;17287.583313353;-0.72265625;-0.0013299560546875;-0.72125244140625;3;;
292;;;;;;;17287.8274543524;-0.72509765625;-0.00132843017578125;-0.7237548828125;3;;
293;;;;;;;17288.0715953518;-0.7275390625;-0.00132568359375;-0.726104736328125;3;;
294;;;;;;;17288.3157363512;-0.72998046875;-0.00132781982421875;-0.728607177734375;3;;
295;;;;;;;17288.5598773506;-0.732421875;-0.0013262939453125;-0.73101806640625;3;;
296;;;;;;;17288.80401835;-0.73486328125;-0.00132354736328125;-0.7335205078125;3;;
297;;;;;;;17289.0481593494;-0.7373046875;-0.0013232421875;-0.7359619140625;3;;
298;;;;;;;17289.2923003487;-0.73974609375;-0.0013226318359375;-0.738372802734375;3;;
299;;;;;;;17289.5364413481;-0.7421875;-0.0013214111328125;-0.740814208984375;3;;
300;;;;;;;17289.7805823475;-0.74462890625;-0.0013226318359375;-0.743255615234375;3;;
301;;;;;;;17290.0247233469;-0.7470703125;-0.00132232666015625;-0.745635986328125;3;;
302;;;;;;;17290.2688643463;-0.74951171875;-0.00132049560546875;-0.748077392578125;3;;
303;;;;;;;17290.5130053457;-0.751953125;-0.00131927490234375;-0.7513427734375;3;;
304;;;;;;;17290.757146345;-0.75439453125;-0.00131805419921875;-0.7537841796875;3;;
305;;;;;;;17291.0012873444;-0.7568359375;-0.0013140869140625;-0.755615234375;3;;
306;;;;;;;17291.2454283438;-0.75927734375;-0.00131683349609375;-0.75897216796875;3;;
307;;;;;;;17291.4895693432;-0.76171875;-0.00131561279296875;-0.76080322265625;3;;
308;;;;;;;17291.7337103426;-0.76416015625;-0.00131317138671875;-0.7635498046875;3;;
309;;;;;;;17291.977851342;-0.7666015625;-0.00131378173828125;-0.76568603515625;3;;
310;;;;;;;17292.2219923413;-0.76904296875;-0.0013128662109375;-0.767822265625;3;;
311;;;;;;;17292.4661333407;-0.771484375;-0.00131439208984375;-0.7708740234375;3;;
312;;;;;;;17292.7102743401;-0.77392578125;-0.0013128662109375;-0.7733154296875;3;;
313;;;;;;;17292.9544153395;-0.7763671875;-0.00131195068359375;-0.7757568359375;3;;
314;;;;;;;17293.1985563389;-0.77880859375;-0.00130828857421875;-0.77850341796875;3;;
315;;;;;;;17293.4426973383;-0.78125;-0.0013104248046875;-0.78033447265625;3;;
316;;;;;;;17293.6868383376;-0.78369140625;-0.00130950927734375;-0.78338623046875;3;;
317;;;;;;;17293.930979337;-0.7861328125;-0.00130828857421875;-0.7855224609375;3;;
318;;;;;;;17294.1751203364;-0.78857421875;-0.00130706787109375;-0.78826904296875;3;;
319;;;;;;;17294.4192613358;-0.791015625;-0.00130615234375;-0.789794921875;3;;
320;;;;;;;17294.6634023352;-0.79345703125;-0.00130706787109375;-0.79254150390625;3;;
321;;;;;;;17294.9075433346;-0.7958984375;-0.001304931640625;-0.79498291015625;3;;
322;;;;;;;17295.1516843339;-0.79833984375;-0.0013055419921875;-0.797119140625;3;;
323;;;;;;;17295.3958253333;-0.80078125;-0.00130401611328125;-0.79986572265625;3;;
324;;;;;;;17295.6399663327;-0.80322265625;-0.001304931640625;-0.8026123046875;3;;
325;;;;;;;17295.8841073321;-0.8056640625;-0.001304931640625;-0.8050537109375;3;;
326;;;;;;;17296.1282483315;-0.80810546875;-0.00130218505859375;-0.80718994140625;3;;
327;;;;;;;17296.3723893309;-0.810546875;-0.001302490234375;-0.80963134765625;3;;
328;;;;;;;17296.6165303302;-0.81298828125;-0.0013031005859375;-0.81207275390625;3;;
329;;;;;;;17296.8606713296;-0.8154296875;-0.0013031005859375;-0.814208984375;3;;
330;;;;;;;17297.104812329;-0.81787109375;-0.001302490234375;-0.8172607421875;3;;
331;;;;;;;17297.3489533284;-0.8203125;-0.00130279541015625;-0.8197021484375;3;;
332;;;;;;;17297.5930943278;-0.82275390625;-0.0013018798828125;-0.82244873046875;3;;
333;;;;;;;17297.8372353272;-0.8251953125;-0.00130096435546875;-0.82489013671875;3;;
334;;;;;;;17298.0813763265;-0.82763671875;-0.00130279541015625;-0.82672119140625;3;;
335;;;;;;;17298.3255173259;-0.830078125;-0.00130126953125;-0.82916259765625;3;;
336;;;;;;;17298.5696583253;-0.83251953125;-0.00130096435546875;-0.83160400390625;3;;
337;;;;;;;17298.8137993247;-0.8349609375;-0.0013018798828125;-0.83404541015625;3;;
338;;;;;;;17299.0579403241;-0.83740234375;-0.001302490234375;-0.836181640625;3;;
339;;;;;;;17299.3020813235;-0.83984375;-0.0013018798828125;-0.83892822265625;3;;
340;;;;;;;17299.5462223228;-0.84228515625;-0.00130340576171875;-0.84136962890625;3;;
341;;;;;;;17299.7903633222;-0.8447265625;-0.00130218505859375;-0.8441162109375;3;;
342;;;;;;;17300.0345043216;-0.84716796875;-0.0013018798828125;-0.84625244140625;3;;
343;;;;;;;17300.278645321;-0.849609375;-0.00130218505859375;-0.8489990234375;3;;
344;;;;;;;17300.5227863204;-0.85205078125;-0.00130462646484375;-0.85174560546875;3;;
345;;;;;;;17300.7669273198;-0.8544921875;-0.00130340576171875;-0.85418701171875;3;;
346;;;;;;;17301.0110683191;-0.85693359375;-0.001304931640625;-0.855712890625;3;;
347;;;;;;;17301.2552093185;-0.859375;-0.001304931640625;-0.8587646484375;3;;
348;;;;;;;17301.4993503179;-0.86181640625;-0.00130645751953125;-0.86090087890625;3;;
349;;;;;;;17301.7434913173;-0.8642578125;-0.00130767822265625;-0.8636474609375;3;;
350;;;;;;;17301.9876323167;-0.86669921875;-0.00130615234375;-0.86639404296875;3;;
351;;;;;;;17302.2317733161;-0.869140625;-0.0013067626953125;-0.86883544921875;3;;
352;;;;;;;17302.4759143154;-0.87158203125;-0.00130706787109375;-0.87066650390625;3;;
353;;;;;;;17302.7200553148;-0.8740234375;-0.00130889892578125;-0.87310791015625;3;;
354;;;;;;;17302.9641963142;-0.87646484375;-0.00130767822265625;-0.87554931640625;3;;
355;;;;;;;17303.2083373136;-0.87890625;-0.001307373046875;-0.87860107421875;3;;
356;;;;;;;17303.452478313;-0.88134765625;-0.00130889892578125;-0.8807373046875;3;;
357;;;;;;;17303.6966193124;-0.8837890625;-0.00130767822265625;-0.8831787109375;3;;
358;;;;;;;17303.9407603118;-0.88623046875;-0.001309814453125;-0.88531494140625;3;;
359;;;;;;;17304.1849013111;-0.888671875;-0.00131072998046875;-0.8880615234375;3;;
360;;;;;;;17304.4290423105;-0.89111328125;-0.00131072998046875;-0.8905029296875;3;;
361;;;;;;;17304.6731833099;-0.8935546875;-0.0013128662109375;-0.8929443359375;3;;
362;;;;;;;17304.9173243093;-0.89599609375;-0.001312255859375;-0.8953857421875;3;;
363;;;;;;;17305.1614653087;-0.8984375;-0.00131256103515625;-0.8978271484375;3;;
364;;;;;;;17305.4056063081;-0.90087890625;-0.001314697265625;-0.90057373046875;3;;
365;;;;;;;17305.6497473074;-0.9033203125;-0.0013134765625;-0.90301513671875;3;;
366;;;;;;;17305.8938883068;-0.90576171875;-0.00131561279296875;-0.90545654296875;3;;
367;;;;;;;17306.1380293062;-0.908203125;-0.001317138671875;-0.90789794921875;3;;
368;;;;;;;17306.3821703056;-0.91064453125;-0.0013177490234375;-0.9100341796875;3;;
369;;;;;;;17306.626311305;-0.9130859375;-0.001317138671875;-0.91217041015625;3;;
370;;;;;;;17306.8704523044;-0.91552734375;-0.0013189697265625;-0.91522216796875;3;;
371;;;;;;;17307.1145933037;-0.91796875;-0.0013189697265625;-0.9173583984375;3;;
372;;;;;;;17307.3587343031;-0.92041015625;-0.00132049560546875;-0.9197998046875;3;;
373;;;;;;;17307.6028753025;-0.9228515625;-0.001322021484375;-0.92254638671875;3;;
374;;;;;;;17307.8470163019;-0.92529296875;-0.00132110595703125;-0.92498779296875;3;;
375;;;;;;;17308.0911573013;-0.927734375;-0.00132049560546875;-0.9271240234375;3;;
376;;;;;;;17308.3352983007;-0.93017578125;-0.00132110595703125;-0.92926025390625;3;;
377;;;;;;;17308.5794393;-0.9326171875;-0.00132171630859375;-0.93170166015625;3;;
378;;;;;;;17308.8235802994;-0.93505859375;-0.0013226318359375;-0.93414306640625;3;;
379;;;;;;;17309.0677212988;-0.9375;-0.00132354736328125;-0.93658447265625;3;;
380;;;;;;;17309.3118622982;-0.93994140625;-0.00132568359375;-0.9393310546875;3;;
381;;;;;;;17309.5560032976;-0.9423828125;-0.00132415771484375;-0.9417724609375;3;;
382;;;;;;;17309.800144297;-0.94482421875;-0.00132415771484375;-0.94390869140625;3;;
383;;;;;;;17310.0442852963;-0.947265625;-0.00132476806640625;-0.9466552734375;3;;
384;;;;;;;17310.2884262957;-0.94970703125;-0.00132537841796875;-0.9490966796875;3;;
385;;;;;;;17310.5325672951;-0.9521484375;-0.0013275146484375;-0.9515380859375;3;;
386;;;;;;;17310.7767082945;-0.95458984375;-0.00132904052734375;-0.95367431640625;3;;
387;;;;;;;17311.0208492939;-0.95703125;-0.00132659912109375;-0.9564208984375;3;;
388;;;;;;;17311.2649902933;-0.95947265625;-0.001328125;-0.9588623046875;3;;
389;;;;;;;17311.5091312926;-0.9619140625;-0.0013299560546875;-0.96099853515625;3;;
390;;;;;;;17311.753272292;-0.96435546875;-0.0013275146484375;-0.9637451171875;3;;
391;;;;;;;17311.9974132914;-0.966796875;-0.00133026123046875;-0.96649169921875;3;;
392;;;;;;;17312.2415542908;-0.96923828125;-0.00133087158203125;-0.968017578125;3;;
393;;;;;;;17312.4856952902;-0.9716796875;-0.001329345703125;-0.97137451171875;3;;
394;;;;;;;17312.7298362896;-0.97412109375;-0.001331787109375;-0.972900390625;3;;
395;;;;;;;17312.9739772889;-0.9765625;-0.001331787109375;-0.97564697265625;3;;
396;;;;;;;17313.2181182883;-0.97900390625;-0.001331787109375;-0.9783935546875;3;;
397;;;;;;;17313.4622592877;-0.9814453125;-0.0013323974609375;-0.9808349609375;3;;
398;;;;;;;17313.7064002871;-0.98388671875;-0.0013360595703125;-0.98358154296875;3;;
399;;;;;;;17313.9505412865;-0.986328125;-0.00133331298828125;-0.985107421875;3;;
400;;;;;;;17314.1946822859;-0.98876953125;-0.00133453369140625;-0.98846435546875;3;;
401;;;;;;;17314.4388232852;-0.9912109375;-0.00133636474609375;-0.9906005859375;3;;
402;;;;;;;17314.6829642846;-0.99365234375;-0.0013360595703125;-0.99273681640625;3;;
403;;;;;;;17314.927105284;-0.99609375;-0.00133636474609375;-0.99578857421875;3;;
404;;;;;;;17315.1712462834;-0.99853515625;-0.00133819580078125;-0.997314453125;3;;
405;;;;;;;17315.4153872828;-1.0009765625;-0.00133819580078125;-1.00067138671875;3;;
406;;;;;;;17315.6595282822;-0.99853515625;-0.00133148193359375;-0.9979248046875;3;;
407;;;;;;;17315.9036692815;-0.99609375;-0.001328125;-0.9954833984375;3;;
408;;;;;;;17316.1478102809;-0.99365234375;-0.00132415771484375;-0.992431640625;3;;
409;;;;;;;17316.3919512803;-0.9912109375;-0.001319580078125;-0.9906005859375;3;;
410;;;;;;;17316.6360922797;-0.98876953125;-0.00131439208984375;-0.9881591796875;3;;
411;;;;;;;17316.8802332791;-0.986328125;-0.00131256103515625;-0.98602294921875;3;;
412;;;;;;;17317.1243742785;-0.98388671875;-0.0013092041015625;-0.9832763671875;3;;
413;;;;;;;17317.3685152778;-0.9814453125;-0.00130645751953125;-0.98114013671875;3;;
414;;;;;;;17317.6126562772;-0.97900390625;-0.001302490234375;-0.97869873046875;3;;
415;;;;;;;17317.8567972766;-0.9765625;-0.00129913330078125;-0.97625732421875;3;;
416;;;;;;;17318.100938276;-0.97412109375;-0.001297607421875;-0.97320556640625;3;;
417;;;;;;;17318.3450792754;-0.9716796875;-0.0012939453125;-0.9710693359375;3;;
418;;;;;;;17318.5892202748;-0.96923828125;-0.00129180908203125;-0.9686279296875;3;;
419;;;;;;;17318.8333612741;-0.966796875;-0.00129150390625;-0.96588134765625;3;;
420;;;;;;;17319.0775022735;-0.96435546875;-0.0012890625;-0.963134765625;3;;
421;;;;;;;17319.3216432729;-0.9619140625;-0.0012847900390625;-0.9613037109375;3;;
422;;;;;;;17319.5657842723;-0.95947265625;-0.00128509521484375;-0.95916748046875;3;;
423;;;;;;;17319.8099252717;-0.95703125;-0.00128173828125;-0.9564208984375;3;;
424;;;;;;;17320.0540662711;-0.95458984375;-0.001279296875;-0.9539794921875;3;;
425;;;;;;;17320.2982072705;-0.9521484375;-0.00127960205078125;-0.9515380859375;3;;
426;;;;;;;17320.5423482698;-0.94970703125;-0.00127685546875;-0.9490966796875;3;;
427;;;;;;;17320.7864892692;-0.947265625;-0.00127471923828125;-0.94635009765625;3;;
428;;;;;;;17321.0306302686;-0.94482421875;-0.00127410888671875;-0.94451904296875;3;;
429;;;;;;;17321.274771268;-0.9423828125;-0.00127227783203125;-0.94146728515625;3;;
430;;;;;;;17321.5189122674;-0.93994140625;-0.00126922607421875;-0.93902587890625;3;;
431;;;;;;;17321.7630532668;-0.9375;-0.00126861572265625;-0.93719482421875;3;;
432;;;;;;;17322.0071942661;-0.93505859375;-0.00126617431640625;-0.9344482421875;3;;
433;;;;;;;17322.2513352655;-0.9326171875;-0.00126617431640625;-0.93170166015625;3;;
434;;;;;;;17322.4954762649;-0.93017578125;-0.0012689208984375;-0.9295654296875;3;;
435;;;;;;;17322.7396172643;-0.927734375;-0.00126708984375;-0.9271240234375;3;;
436;;;;;;;17322.9837582637;-0.92529296875;-0.00126373291015625;-0.92437744140625;3;;
437;;;;;;;17323.2278992631;-0.9228515625;-0.00126495361328125;-0.92193603515625;3;;
438;;;;;;;17323.4720402624;-0.92041015625;-0.0012628173828125;-0.9197998046875;3;;
439;;;;;;;17323.7161812618;-0.91796875;-0.00126312255859375;-0.91766357421875;3;;
440;;;;;;;17323.9603222612;-0.91552734375;-0.001260986328125;-0.91461181640625;3;;
441;;;;;;;17324.2044632606;-0.9130859375;-0.001259765625;-0.91217041015625;3;;
442;;;;;;;17324.44860426;-0.91064453125;-0.001258544921875;-0.9100341796875;3;;
443;;;;;;;17324.6927452594;-0.908203125;-0.0012579345703125;-0.90728759765625;3;;
444;;;;;;;17324.9368862587;-0.90576171875;-0.0012567138671875;-0.9051513671875;3;;
445;;;;;;;17325.1810272581;-0.9033203125;-0.00125579833984375;-0.9027099609375;3;;
446;;;;;;;17325.4251682575;-0.90087890625;-0.0012542724609375;-0.89996337890625;3;;
447;;;;;;;17325.6693092569;-0.8984375;-0.001253662109375;-0.8978271484375;3;;
448;;;;;;;17325.9134502563;-0.89599609375;-0.00125152587890625;-0.89508056640625;3;;
449;;;;;;;17326.1575912557;-0.8935546875;-0.001253662109375;-0.89263916015625;3;;
450;;;;;;;17326.401732255;-0.89111328125;-0.0012518310546875;-0.8905029296875;3;;
451;;;;;;;17326.6458732544;-0.888671875;-0.0012506103515625;-0.88775634765625;3;;
452;;;;;;;17326.8900142538;-0.88623046875;-0.00125091552734375;-0.8856201171875;3;;
453;;;;;;;17327.1341552532;-0.8837890625;-0.00125030517578125;-0.8831787109375;3;;
454;;;;;;;17327.3782962526;-0.88134765625;-0.00125;-0.880126953125;3;;
455;;;;;;;17327.622437252;-0.87890625;-0.0012457275390625;-0.87799072265625;3;;
456;;;;;;;17327.8665782513;-0.87646484375;-0.00125091552734375;-0.8758544921875;3;;
457;;;;;;;17328.1107192507;-0.8740234375;-0.00124542236328125;-0.87310791015625;3;;
458;;;;;;;17328.3548602501;-0.87158203125;-0.001246337890625;-0.8709716796875;3;;
459;;;;;;;17328.5990012495;-0.869140625;-0.00124603271484375;-0.867919921875;3;;
460;;;;;;;17328.8431422489;-0.86669921875;-0.0012451171875;-0.865478515625;3;;
461;;;;;;;17329.0872832483;-0.8642578125;-0.00124481201171875;-0.8636474609375;3;;
462;;;;;;;17329.3314242476;-0.86181640625;-0.00124481201171875;-0.86181640625;3;;
463;;;;;;;17329.575565247;-0.859375;-0.001243896484375;-0.8587646484375;3;;
464;;;;;;;17329.8197062464;-0.85693359375;-0.00124542236328125;-0.85601806640625;3;;
465;;;;;;;17330.0638472458;-0.8544921875;-0.0012445068359375;-0.85357666015625;3;;
466;;;;;;;17330.3079882452;-0.85205078125;-0.00124237060546875;-0.8514404296875;3;;
467;;;;;;;17330.5521292446;-0.849609375;-0.0012457275390625;-0.848388671875;3;;
468;;;;;;;17330.7962702439;-0.84716796875;-0.0012432861328125;-0.8465576171875;3;;
469;;;;;;;17331.0404112433;-0.8447265625;-0.00124237060546875;-0.8441162109375;3;;
470;;;;;;;17331.2845522427;-0.84228515625;-0.0012451171875;-0.8416748046875;3;;
471;;;;;;;17331.5286932421;-0.83984375;-0.0012445068359375;-0.8392333984375;3;;
472;;;;;;;17331.7728342415;-0.83740234375;-0.001243896484375;-0.83648681640625;3;;
473;;;;;;;17332.0169752409;-0.8349609375;-0.0012457275390625;-0.8343505859375;3;;
474;;;;;;;17332.2611162402;-0.83251953125;-0.00124603271484375;-0.831298828125;3;;
475;;;;;;;17332.5052572396;-0.830078125;-0.00124542236328125;-0.82916259765625;3;;
476;;;;;;;17332.749398239;-0.82763671875;-0.0012469482421875;-0.826416015625;3;;
477;;;;;;;17332.9935392384;-0.8251953125;-0.00124664306640625;-0.82489013671875;3;;
478;;;;;;;17333.2376802378;-0.82275390625;-0.00124603271484375;-0.82183837890625;3;;
479;;;;;;;17333.4818212372;-0.8203125;-0.00125;-0.81939697265625;3;;
480;;;;;;;17333.7259622365;-0.81787109375;-0.001248779296875;-0.81695556640625;3;;
481;;;;;;;17333.9701032359;-0.8154296875;-0.0012493896484375;-0.8148193359375;3;;
482;;;;;;;17334.2142442353;-0.81298828125;-0.0012493896484375;-0.8123779296875;3;;
483;;;;;;;17334.4583852347;-0.810546875;-0.00125091552734375;-0.81024169921875;3;;
484;;;;;;;17334.7025262341;-0.80810546875;-0.00125030517578125;-0.80718994140625;3;;
485;;;;;;;17334.9466672335;-0.8056640625;-0.00125274658203125;-0.80474853515625;3;;
486;;;;;;;17335.1908082329;-0.80322265625;-0.0012542724609375;-0.80169677734375;3;;
487;;;;;;;17335.4349492322;-0.80078125;-0.00125396728515625;-0.80047607421875;3;;
488;;;;;;;17335.6790902316;-0.79833984375;-0.0012554931640625;-0.7977294921875;3;;
489;;;;;;;17335.923231231;-0.7958984375;-0.00126007080078125;-0.79559326171875;3;;
490;;;;;;;17336.1673722304;-0.79345703125;-0.0012579345703125;-0.79254150390625;3;;
491;;;;;;;17336.4115132298;-0.791015625;-0.0012591552734375;-0.79010009765625;3;;
492;;;;;;;17336.6556542292;-0.78857421875;-0.0012628173828125;-0.7879638671875;3;;
493;;;;;;;17336.8997952285;-0.7861328125;-0.00126068115234375;-0.7861328125;3;;
494;;;;;;;17337.1439362279;-0.78369140625;-0.00126312255859375;-0.78277587890625;3;;
495;;;;;;;17337.3880772273;-0.78125;-0.00126617431640625;-0.78033447265625;3;;
496;;;;;;;17337.6322182267;-0.77880859375;-0.0012652587890625;-0.77789306640625;3;;
497;;;;;;;17337.8763592261;-0.7763671875;-0.0012664794921875;-0.7757568359375;3;;
498;;;;;;;17338.1205002255;-0.77392578125;-0.00126861572265625;-0.7733154296875;3;;
499;;;;;;;17338.3646412248;-0.771484375;-0.0012701416015625;-0.770263671875;3;;
500;;;;;;;17338.6087822242;-0.76904296875;-0.001270751953125;-0.76812744140625;3;;
501;;;;;;;17338.8529232236;-0.7666015625;-0.0012750244140625;-0.7659912109375;3;;
502;;;;;;;17339.097064223;-0.76416015625;-0.0012738037109375;-0.7635498046875;3;;
503;;;;;;;17339.3412052224;-0.76171875;-0.0012762451171875;-0.7611083984375;3;;
504;;;;;;;17339.5853462218;-0.75927734375;-0.00128021240234375;-0.75836181640625;3;;
505;;;;;;;17339.8294872211;-0.7568359375;-0.00127899169921875;-0.75592041015625;3;;
506;;;;;;;17340.0736282205;-0.75439453125;-0.0012799072265625;-0.75347900390625;3;;
507;;;;;;;17340.3177692199;-0.751953125;-0.00128265380859375;-0.7513427734375;3;;
508;;;;;;;17340.5619102193;-0.74951171875;-0.00128387451171875;-0.748138427734375;3;;
509;;;;;;;17340.8060512187;-0.7470703125;-0.00128662109375;-0.745635986328125;3;;
510;;;;;;;17341.0501922181;-0.74462890625;-0.00128875732421875;-0.743255615234375;3;;
511;;;;;;;17341.2943332174;-0.7421875;-0.0012890625;-0.740814208984375;3;;
512;;;;;;;17341.5384742168;-0.73974609375;-0.00129180908203125;-0.73834228515625;3;;
513;;;;;;;17341.7826152162;-0.7373046875;-0.00129364013671875;-0.7359619140625;3;;
514;;;;;;;17342.0267562156;-0.73486328125;-0.001295166015625;-0.7335205078125;3;;
515;;;;;;;17342.270897215;-0.732421875;-0.00129638671875;-0.731048583984375;3;;
516;;;;;;;17342.5150382144;-0.72998046875;-0.00129852294921875;-0.728607177734375;3;;
517;;;;;;;17342.7591792137;-0.7275390625;-0.00129974365234375;-0.72613525390625;3;;
518;;;;;;;17343.0033202131;-0.72509765625;-0.001300048828125;-0.723724365234375;3;;
519;;;;;;;17343.2474612125;-0.72265625;-0.0013031005859375;-0.72125244140625;3;;
520;;;;;;;17343.4916022119;-0.72021484375;-0.00130401611328125;-0.718841552734375;3;;
521;;;;;;;17343.7357432113;-0.7177734375;-0.001304931640625;-0.716339111328125;3;;
522;;;;;;;17343.9798842107;-0.71533203125;-0.0013067626953125;-0.713958740234375;3;;
523;;;;;;;17344.22402521;-0.712890625;-0.00130889892578125;-0.71148681640625;3;;
524;;;;;;;17344.4681662094;-0.71044921875;-0.00130828857421875;-0.70904541015625;3;;
525;;;;;;;17344.7123072088;-0.7080078125;-0.0013116455078125;-0.70660400390625;3;;
526;;;;;;;17344.9564482082;-0.70556640625;-0.00131317138671875;-0.704193115234375;3;;
527;;;;;;;17345.2005892076;-0.703125;-0.00131317138671875;-0.70172119140625;3;;
528;;;;;;;17345.444730207;-0.70068359375;-0.00131561279296875;-0.699310302734375;3;;
529;;;;;;;17345.6888712063;-0.6982421875;-0.001317138671875;-0.69683837890625;3;;
530;;;;;;;17345.9330122057;-0.69580078125;-0.00131866455078125;-0.69439697265625;3;;
531;;;;;;;17346.1771532051;-0.693359375;-0.001317138671875;-0.6920166015625;3;;
532;;;;;;;17346.4212942045;-0.69091796875;-0.00132110595703125;-0.6895751953125;3;;
533;;;;;;;17346.6654352039;-0.6884765625;-0.00132049560546875;-0.687103271484375;3;;
534;;;;;;;17346.9095762033;-0.68603515625;-0.00132354736328125;-0.6846923828125;3;;
535;;;;;;;17347.1537172026;-0.68359375;-0.0013232421875;-0.682220458984375;3;;
536;;;;;;;17347.397858202;-0.68115234375;-0.00132293701171875;-0.679779052734375;3;;
537;;;;;;;17347.6419992014;-0.6787109375;-0.0013250732421875;-0.67724609375;3;;
538;;;;;;;17347.8861402008;-0.67626953125;-0.00132598876953125;-0.674835205078125;3;;
539;;;;;;;17348.1302812002;-0.673828125;-0.0013250732421875;-0.67242431640625;3;;
540;;;;;;;17348.3744221996;-0.67138671875;-0.00132659912109375;-0.6700439453125;3;;
541;;;;;;;17348.618563199;-0.6689453125;-0.0013275146484375;-0.667572021484375;3;;
542;;;;;;;17348.8627041983;-0.66650390625;-0.0013275146484375;-0.665130615234375;3;;
543;;;;;;;17349.1068451977;-0.6640625;-0.00133209228515625;-0.662689208984375;3;;
544;;;;;;;17349.3509861971;-0.66162109375;-0.0013299560546875;-0.660186767578125;3;;
545;;;;;;;17349.5951271965;-0.6591796875;-0.0013287353515625;-0.6578369140625;3;;
546;;;;;;;17349.8392681959;-0.65673828125;-0.00133148193359375;-0.655364990234375;3;;
547;;;;;;;17350.0834091952;-0.654296875;-0.00133056640625;-0.652984619140625;3;;
548;;;;;;;17350.3275501946;-0.65185546875;-0.0013311767578125;-0.650543212890625;3;;
549;;;;;;;17350.571691194;-0.6494140625;-0.001331787109375;-0.6480712890625;3;;
550;;;;;;;17350.8158321934;-0.64697265625;-0.00133026123046875;-0.6456298828125;3;;
551;;;;;;;17351.0599731928;-0.64453125;-0.00132965087890625;-0.643218994140625;3;;
552;;;;;;;17351.3041141922;-0.64208984375;-0.00133148193359375;-0.64068603515625;3;;
553;;;;;;;17351.5482551916;-0.6396484375;-0.00133087158203125;-0.6383056640625;3;;
554;;;;;;;17351.7923961909;-0.63720703125;-0.001331787109375;-0.635772705078125;3;;
555;;;;;;;17352.0365371903;-0.634765625;-0.0013323974609375;-0.633392333984375;3;;
556;;;;;;;17352.2806781897;-0.63232421875;-0.00133209228515625;-0.630950927734375;3;;
557;;;;;;;17352.5248191891;-0.6298828125;-0.0013287353515625;-0.628509521484375;3;;
558;;;;;;;17352.7689601885;-0.62744140625;-0.00133087158203125;-0.626068115234375;3;;
559;;;;;;;17353.0131011879;-0.625;-0.00133209228515625;-0.62359619140625;3;;
560;;;;;;;17353.2572421872;-0.62255859375;-0.00132904052734375;-0.621246337890625;3;;
561;;;;;;;17353.5013831866;-0.6201171875;-0.00132965087890625;-0.618743896484375;3;;
562;;;;;;;17353.745524186;-0.61767578125;-0.00133056640625;-0.6163330078125;3;;
563;;;;;;;17353.9896651854;-0.615234375;-0.001328125;-0.6138916015625;3;;
564;;;;;;;17354.2338061848;-0.61279296875;-0.0013287353515625;-0.6114501953125;3;;
565;;;;;;;17354.4779471842;-0.6103515625;-0.00132965087890625;-0.6090087890625;3;;
566;;;;;;;17354.7220881835;-0.60791015625;-0.0013262939453125;-0.6065673828125;3;;
567;;;;;;;17354.9662291829;-0.60546875;-0.00132598876953125;-0.604156494140625;3;;
568;;;;;;;17355.2103701823;-0.60302734375;-0.00132781982421875;-0.601654052734375;3;;
569;;;;;;;17355.4545111817;-0.6005859375;-0.00132659912109375;-0.5992431640625;3;;
570;;;;;;;17355.6986521811;-0.59814453125;-0.00132659912109375;-0.596771240234375;3;;
571;;;;;;;17355.9427931805;-0.595703125;-0.00132568359375;-0.59442138671875;3;;
572;;;;;;;17356.1869341798;-0.59326171875;-0.00132354736328125;-0.59197998046875;3;;
573;;;;;;;17356.4310751792;-0.5908203125;-0.00132293701171875;-0.589508056640625;3;;
574;;;;;;;17356.6752161786;-0.58837890625;-0.0013238525390625;-0.587066650390625;3;;
575;;;;;;;17356.919357178;-0.5859375;-0.00132232666015625;-0.584625244140625;3;;
576;;;;;;;17357.1634981774;-0.58349609375;-0.00132171630859375;-0.582183837890625;3;;
577;;;;;;;17357.4076391768;-0.5810546875;-0.00132171630859375;-0.579742431640625;3;;
578;;;;;;;17357.6517801761;-0.57861328125;-0.00131866455078125;-0.57733154296875;3;;
579;;;;;;;17357.8959211755;-0.576171875;-0.001319580078125;-0.574920654296875;3;;
580;;;;;;;17358.1400621749;-0.57373046875;-0.0013189697265625;-0.572418212890625;3;;
581;;;;;;;17358.3842031743;-0.5712890625;-0.0013177490234375;-0.57000732421875;3;;
582;;;;;;;17358.6283441737;-0.56884765625;-0.001317138671875;-0.567596435546875;3;;
583;;;;;;;17358.8724851731;-0.56640625;-0.00131591796875;-0.565155029296875;3;;
584;;;;;;;17359.1166261724;-0.56396484375;-0.001312255859375;-0.56268310546875;3;;
585;;;;;;;17359.3607671718;-0.5615234375;-0.00131317138671875;-0.56024169921875;3;;
586;;;;;;;17359.6049081712;-0.55908203125;-0.00131317138671875;-0.55780029296875;3;;
587;;;;;;;17359.8490491706;-0.556640625;-0.00131072998046875;-0.55535888671875;3;;
588;;;;;;;17360.09319017;-0.55419921875;-0.00131011962890625;-0.552947998046875;3;;
589;;;;;;;17360.3373311694;-0.5517578125;-0.00131134033203125;-0.55047607421875;3;;
590;;;;;;;17360.5814721687;-0.54931640625;-0.001307373046875;-0.548095703125;3;;
591;;;;;;;17360.8256131681;-0.546875;-0.00130767822265625;-0.545654296875;3;;
592;;;;;;;17361.0697541675;-0.54443359375;-0.00130889892578125;-0.543182373046875;3;;
593;;;;;;;17361.3138951669;-0.5419921875;-0.00130523681640625;-0.540802001953125;3;;
594;;;;;;;17361.5580361663;-0.53955078125;-0.00130340576171875;-0.538360595703125;3;;
595;;;;;;;17361.8021771657;-0.537109375;-0.0013037109375;-0.535919189453125;3;;
596;;;;;;;17362.046318165;-0.53466796875;-0.00130126953125;-0.533447265625;3;;
597;;;;;;;17362.2904591644;-0.5322265625;-0.00129913330078125;-0.531036376953125;3;;
598;;;;;;;17362.5346001638;-0.52978515625;-0.00129913330078125;-0.528656005859375;3;;
599;;;;;;;17362.7787411632;-0.52734375;-0.00129730224609375;-0.526153564453125;3;;
600;;;;;;;17363.0228821626;-0.52490234375;-0.0012957763671875;-0.523681640625;3;;
601;;;;;;;17363.267023162;-0.5224609375;-0.001295166015625;-0.521270751953125;3;;
602;;;;;;;17363.5111641613;-0.52001953125;-0.00129241943359375;-0.518798828125;3;;
603;;;;;;;17363.7553051607;-0.517578125;-0.0012908935546875;-0.51641845703125;3;;
604;;;;;;;17363.9994461601;-0.51513671875;-0.001290283203125;-0.513946533203125;3;;
605;;;;;;;17364.2435871595;-0.5126953125;-0.00128570556640625;-0.51153564453125;3;;
606;;;;;;;17364.4877281589;-0.51025390625;-0.00128448486328125;-0.509124755859375;3;;
607;;;;;;;17364.7318691583;-0.5078125;-0.001285400390625;-0.50665283203125;3;;
608;;;;;;;17364.9760101577;-0.50537109375;-0.0012811279296875;-0.504180908203125;3;;
609;;;;;;;17365.220151157;-0.5029296875;-0.00127899169921875;-0.501800537109375;3;;
610;;;;;;;17365.4642921564;-0.50048828125;-0.00127838134765625;-0.49932861328125;3;;
611;;;;;;;17365.7084331558;-0.498046875;-0.001275634765625;-0.496856689453125;3;;
612;;;;;;;17365.9525741552;-0.49560546875;-0.0012725830078125;-0.494415283203125;3;;
613;;;;;;;17366.1967151546;-0.4931640625;-0.00127227783203125;-0.49200439453125;3;;
614;;;;;;;17366.440856154;-0.49072265625;-0.00126922607421875;-0.4896240234375;3;;
615;;;;;;;17366.6849971533;-0.48828125;-0.00126495361328125;-0.4871826171875;3;;
616;;;;;;;17366.9291381527;-0.48583984375;-0.00126434326171875;-0.48468017578125;3;;
617;;;;;;;17367.1732791521;-0.4833984375;-0.00126007080078125;-0.4822998046875;3;;
618;;;;;;;17367.4174201515;-0.48095703125;-0.00125732421875;-0.479827880859375;3;;
619;;;;;;;17367.6615611509;-0.478515625;-0.0012554931640625;-0.477386474609375;3;;
620;;;;;;;17367.9057021503;-0.47607421875;-0.00125213623046875;-0.474945068359375;3;;
621;;;;;;;17368.1498431496;-0.4736328125;-0.00124786376953125;-0.4725341796875;3;;
622;;;;;;;17368.393984149;-0.47119140625;-0.00124603271484375;-0.470123291015625;3;;
623;;;;;;;17368.6381251484;-0.46875;-0.00124298095703125;-0.467681884765625;3;;
624;;;;;;;17368.8822661478;-0.46630859375;-0.00123809814453125;-0.46527099609375;3;;
625;;;;;;;17369.1264071472;-0.4638671875;-0.00123504638671875;-0.46282958984375;3;;
626;;;;;;;17369.3705481466;-0.46142578125;-0.00123077392578125;-0.460357666015625;3;;
627;;;;;;;17369.6146891459;-0.458984375;-0.0012261962890625;-0.4578857421875;3;;
628;;;;;;;17369.8588301453;-0.45654296875;-0.00122314453125;-0.455474853515625;3;;
629;;;;;;;17370.1029711447;-0.4541015625;-0.00121795654296875;-0.4530029296875;3;;
630;;;;;;;17370.3471121441;-0.45166015625;-0.00121246337890625;-0.4505615234375;3;;
631;;;;;;;17370.5912531435;-0.44921875;-0.00120849609375;-0.44818115234375;3;;
632;;;;;;;17370.8353941429;-0.44677734375;-0.00120330810546875;-0.4456787109375;3;;
633;;;;;;;17371.0795351422;-0.4443359375;-0.001197509765625;-0.4432373046875;3;;
634;;;;;;;17371.3236761416;-0.44189453125;-0.00119293212890625;-0.44085693359375;3;;
635;;;;;;;17371.567817141;-0.439453125;-0.00118743896484375;-0.438385009765625;3;;
636;;;;;;;17371.8119581404;-0.43701171875;-0.001180419921875;-0.43597412109375;3;;
637;;;;;;;17372.0560991398;-0.4345703125;-0.0011749267578125;-0.43353271484375;3;;
638;;;;;;;17372.3002401392;-0.43212890625;-0.001168212890625;-0.43109130859375;3;;
639;;;;;;;17372.5443811385;-0.4296875;-0.00116119384765625;-0.42864990234375;3;;
640;;;;;;;17372.7885221379;-0.42724609375;-0.00115478515625;-0.426239013671875;3;;
641;;;;;;;17373.0326631373;-0.4248046875;-0.0011474609375;-0.423858642578125;3;;
642;;;;;;;17373.2768041367;-0.42236328125;-0.00113922119140625;-0.42132568359375;3;;
643;;;;;;;17373.5209451361;-0.419921875;-0.00113189697265625;-0.418975830078125;3;;
644;;;;;;;17373.7650861355;-0.41748046875;-0.00112396240234375;-0.416534423828125;3;;
645;;;;;;;17374.0092271348;-0.4150390625;-0.00111480712890625;-0.414093017578125;3;;
646;;;;;;;17374.2533681342;-0.41259765625;-0.0011065673828125;-0.411590576171875;3;;
647;;;;;;;17374.4975091336;-0.41015625;-0.001097412109375;-0.4091796875;3;;
648;;;;;;;17374.741650133;-0.40771484375;-0.00108734130859375;-0.40673828125;3;;
649;;;;;;;17374.9857911324;-0.4052734375;-0.0010784912109375;-0.404327392578125;3;;
650;;;;;;;17375.2299321318;-0.40283203125;-0.00106842041015625;-0.401885986328125;3;;
651;;;;;;;17375.4740731311;-0.400390625;-0.00105743408203125;-0.399444580078125;3;;
652;;;;;;;17375.7182141305;-0.39794921875;-0.00104736328125;-0.39697265625;3;;
653;;;;;;;17375.9623551299;-0.3955078125;-0.0010369873046875;-0.394561767578125;3;;
654;;;;;;;17376.2064961293;-0.39306640625;-0.0010247802734375;-0.39215087890625;3;;
655;;;;;;;17376.4506371287;-0.390625;-0.00101409912109375;-0.389678955078125;3;;
656;;;;;;;17376.6947781281;-0.38818359375;-0.00100189208984375;-0.38726806640625;3;;
657;;;;;;;17376.9389191274;-0.3857421875;-0.0009881591796875;-0.384857177734375;3;;
658;;;;;;;17377.1830601268;-0.38330078125;-0.00097625732421875;-0.3824462890625;3;;
659;;;;;;;17377.4272011262;-0.380859375;-0.000963134765625;-0.379913330078125;3;;
660;;;;;;;17377.6713421256;-0.37841796875;-0.00094879150390625;-0.3775634765625;3;;
661;;;;;;;17377.915483125;-0.3759765625;-0.0009356689453125;-0.375152587890625;3;;
662;;;;;;;17378.1596241244;-0.37353515625;-0.00092193603515625;-0.372650146484375;3;;
663;;;;;;;17378.4037651237;-0.37109375;-0.00090667724609375;-0.370147705078125;3;;
664;;;;;;;17378.6479061231;-0.36865234375;-0.00089263916015625;-0.36773681640625;3;;
665;;;;;;;17378.8920471225;-0.3662109375;-0.00087799072265625;-0.365325927734375;3;;
666;;;;;;;17379.1361881219;-0.36376953125;-0.00086181640625;-0.362823486328125;3;;
667;;;;;;;17379.3803291213;-0.361328125;-0.00084686279296875;-0.3604736328125;3;;
668;;;;;;;17379.6244701207;-0.35888671875;-0.000831298828125;-0.358001708984375;3;;
669;;;;;;;17379.8686111201;-0.3564453125;-0.00081451416015625;-0.355560302734375;3;;
670;;;;;;;17380.1127521194;-0.35400390625;-0.0007989501953125;-0.3531494140625;3;;
671;;;;;;;17380.3568931188;-0.3515625;-0.0007830810546875;-0.3507080078125;3;;
672;;;;;;;17380.6010341182;-0.34912109375;-0.000765380859375;-0.348297119140625;3;;
673;;;;;;;17380.8451751176;-0.3466796875;-0.00074920654296875;-0.345916748046875;3;;
674;;;;;;;17381.089316117;-0.34423828125;-0.00073272705078125;-0.343475341796875;3;;
675;;;;;;;17381.3334571164;-0.341796875;-0.0007147216796875;-0.34100341796875;3;;
676;;;;;;;17381.5775981157;-0.33935546875;-0.00069793701171875;-0.338592529296875;3;;
677;;;;;;;17381.8217391151;-0.3369140625;-0.00068115234375;-0.336151123046875;3;;
678;;;;;;;17382.0658801145;-0.33447265625;-0.000662841796875;-0.33367919921875;3;;
679;;;;;;;17382.3100211139;-0.33203125;-0.000645751953125;-0.331268310546875;3;;
680;;;;;;;17382.5541621133;-0.32958984375;-0.00062896728515625;-0.32879638671875;3;;
681;;;;;;;17382.7983031127;-0.3271484375;-0.00061065673828125;-0.326385498046875;3;;
682;;;;;;;17383.042444112;-0.32470703125;-0.00059356689453125;-0.323974609375;3;;
683;;;;;;;17383.2865851114;-0.322265625;-0.00057647705078125;-0.32147216796875;3;;
684;;;;;;;17383.5307261108;-0.31982421875;-0.0005584716796875;-0.319061279296875;3;;
685;;;;;;;17383.7748671102;-0.3173828125;-0.00054168701171875;-0.31658935546875;3;;
686;;;;;;;17384.0190081096;-0.31494140625;-0.00052490234375;-0.314208984375;3;;
687;;;;;;;17384.263149109;-0.3125;-0.00050689697265625;-0.311767578125;3;;
688;;;;;;;17384.5072901083;-0.31005859375;-0.00049066162109375;-0.309326171875;3;;
689;;;;;;;17384.7514311077;-0.3076171875;-0.000474395751953125;-0.306854248046875;3;;
690;;;;;;;17384.9955721071;-0.30517578125;-0.0004571533203125;-0.304412841796875;3;;
691;;;;;;;17385.2397131065;-0.302734375;-0.000441009521484375;-0.302001953125;3;;
692;;;;;;;17385.4838541059;-0.30029296875;-0.00042535400390625;-0.299530029296875;3;;
693;;;;;;;17385.7279951053;-0.2978515625;-0.000408843994140625;-0.29705810546875;3;;
694;;;;;;;17385.9721361046;-0.29541015625;-0.0003934326171875;-0.294647216796875;3;;
695;;;;;;;17386.216277104;-0.29296875;-0.00037860107421875;-0.292236328125;3;;
696;;;;;;;17386.4604181034;-0.29052734375;-0.0003629150390625;-0.289764404296875;3;;
697;;;;;;;17386.7045591028;-0.2880859375;-0.0003482666015625;-0.287384033203125;3;;
698;;;;;;;17386.9487001022;-0.28564453125;-0.00033428955078125;-0.284942626953125;3;;
699;;;;;;;17387.1928411016;-0.283203125;-0.000319671630859375;-0.28253173828125;3;;
700;;;;;;;17387.4369821009;-0.28076171875;-0.000305999755859375;-0.280120849609375;3;;
701;;;;;;;17387.6811231003;-0.2783203125;-0.00029302978515625;-0.27764892578125;3;;
702;;;;;;;17387.9252640997;-0.27587890625;-0.00027947998046875;-0.275177001953125;3;;
703;;;;;;;17388.1694050991;-0.2734375;-0.0002669677734375;-0.272735595703125;3;;
704;;;;;;;17388.4135460985;-0.27099609375;-0.000255035400390625;-0.270355224609375;3;;
705;;;;;;;17388.6576870979;-0.2685546875;-0.00024267578125;-0.26788330078125;3;;
706;;;;;;;17388.9018280972;-0.26611328125;-0.0002310791015625;-0.265411376953125;3;;
707;;;;;;;17389.1459690966;-0.263671875;-0.00022027587890625;-0.2630615234375;3;;
708;;;;;;;17389.390110096;-0.26123046875;-0.000209197998046875;-0.260589599609375;3;;
709;;;;;;;17389.6342510954;-0.2587890625;-0.000198760986328125;-0.258087158203125;3;;
710;;;;;;;17389.8783920948;-0.25634765625;-0.00018902587890625;-0.25567626953125;3;;
711;;;;;;;17390.1225330942;-0.25390625;-0.00017913818359375;-0.2532958984375;3;;
712;;;;;;;17390.3666740935;-0.25146484375;-0.0001697998046875;-0.250823974609375;3;;
713;;;;;;;17390.6108150929;-0.2490234375;-0.0001612548828125;-0.248382568359375;3;;
714;;;;;;;17390.8549560923;-0.24658203125;-0.000152496337890625;-0.24591064453125;3;;
715;;;;;;;17391.0990970917;-0.244140625;-0.000144287109375;-0.243560791015625;3;;
716;;;;;;;17391.3432380911;-0.24169921875;-0.000136749267578125;-0.241119384765625;3;;
717;;;;;;;17391.5873790905;-0.2392578125;-0.00012908935546875;-0.23858642578125;3;;
718;;;;;;;17391.8315200898;-0.23681640625;-0.000121856689453125;-0.23626708984375;3;;
719;;;;;;;17392.0756610892;-0.234375;-0.000115325927734375;-0.23388671875;3;;
720;;;;;;;17392.3198020886;-0.23193359375;-0.00010870361328125;-0.23138427734375;3;;
721;;;;;;;17392.563943088;-0.2294921875;-0.000102447509765625;-0.2288818359375;3;;
722;;;;;;;17392.8080840874;-0.22705078125;-9.68017578125E-05;-0.226409912109375;3;;
723;;;;;;;17393.0522250868;-0.224609375;-9.112548828125E-05;-0.22406005859375;3;;
724;;;;;;;17393.2963660862;-0.22216796875;-8.575439453125E-05;-0.2215576171875;3;;
725;;;;;;;17393.5405070855;-0.2197265625;-8.0902099609375E-05;-0.219085693359375;3;;
726;;;;;;;17393.7846480849;-0.21728515625;-7.60498046875E-05;-0.216705322265625;3;;
727;;;;;;;17394.0287890843;-0.21484375;-7.1533203125E-05;-0.214202880859375;3;;
728;;;;;;;17394.2729300837;-0.21240234375;-6.73828125E-05;-0.211761474609375;3;;
729;;;;;;;17394.5170710831;-0.2099609375;-6.3262939453125E-05;-0.209381103515625;3;;
730;;;;;;;17394.7612120824;-0.20751953125;-5.938720703125E-05;-0.206939697265625;3;;
731;;;;;;;17395.0053530818;-0.205078125;-5.5908203125E-05;-0.204559326171875;3;;
732;;;;;;;17395.2494940812;-0.20263671875;-5.242919921875E-05;-0.202056884765625;3;;
733;;;;;;;17395.4936350806;-0.2001953125;-4.9163818359375E-05;-0.199615478515625;3;;
734;;;;;;;17395.73777608;-0.19775390625;-4.62188720703125E-05;-0.197235107421875;3;;
735;;;;;;;17395.9819170794;-0.1953125;-4.3353271484375E-05;-0.19476318359375;3;;
736;;;;;;;17396.2260580788;-0.19287109375;-4.0570068359375E-05;-0.19232177734375;3;;
737;;;;;;;17396.4701990781;-0.1904296875;-3.80584716796875E-05;-0.189910888671875;3;;
738;;;;;;;17396.7143400775;-0.18798828125;-3.56353759765625E-05;-0.187469482421875;3;;
739;;;;;;;17396.9584810769;-0.185546875;-3.33160400390625E-05;-0.185028076171875;3;;
740;;;;;;;17397.2026220763;-0.18310546875;-3.1243896484375E-05;-0.1824951171875;3;;
741;;;;;;;17397.4467630757;-0.1806640625;-2.92022705078125E-05;-0.180206298828125;3;;
742;;;;;;;17397.6909040751;-0.17822265625;-2.72491455078125E-05;-0.177703857421875;3;;
743;;;;;;;17397.9350450744;-0.17578125;-2.55157470703125E-05;-0.17529296875;3;;
744;;;;;;;17398.1791860738;-0.17333984375;-2.379150390625E-05;-0.172821044921875;3;;
745;;;;;;;17398.4233270732;-0.1708984375;-2.220458984375E-05;-0.170440673828125;3;;
746;;;;;;;17398.6674680726;-0.16845703125;-2.07305908203125E-05;-0.16796875;3;;
747;;;;;;;17398.911609072;-0.166015625;-1.93328857421875E-05;-0.165496826171875;3;;
748;;;;;;;17399.1557500714;-0.16357421875;-1.79840087890625E-05;-0.1630859375;3;;
749;;;;;;;17399.3998910707;-0.1611328125;-1.676025390625E-05;-0.160736083984375;3;;
750;;;;;;;17399.6440320701;-0.15869140625;-1.55975341796875E-05;-0.158233642578125;3;;
751;;;;;;;17399.8881730695;-0.15625;-1.44866943359375E-05;-0.155792236328125;3;;
752;;;;;;;17400.1323140689;-0.15380859375;-1.343994140625E-05;-0.1533203125;3;;
753;;;;;;;17400.3764550683;-0.1513671875;-1.25213623046875E-05;-0.15093994140625;3;;
754;;;;;;;17400.6205960677;-0.14892578125;-1.1566162109375E-05;-0.1484375;3;;
755;;;;;;;17400.864737067;-0.146484375;-1.07330322265625E-05;-0.14605712890625;3;;
756;;;;;;;17401.1088780664;-0.14404296875;-9.9334716796875E-06;-0.143585205078125;3;;
757;;;;;;;17401.3530190658;-0.1416015625;-9.1796875E-06;-0.14117431640625;3;;
758;;;;;;;17401.5971600652;-0.13916015625;-8.4686279296875E-06;-0.138702392578125;3;;
759;;;;;;;17401.8413010646;-0.13671875;-7.8033447265625E-06;-0.13629150390625;3;;
760;;;;;;;17402.085442064;-0.13427734375;-7.21435546875E-06;-0.133819580078125;3;;
761;;;;;;;17402.3295830633;-0.1318359375;-6.6192626953125E-06;-0.13134765625;3;;
762;;;;;;;17402.5737240627;-0.12939453125;-6.0943603515625E-06;-0.12890625;3;;
763;;;;;;;17402.8178650621;-0.126953125;-5.5938720703125E-06;-0.12652587890625;3;;
764;;;;;;;17403.0620060615;-0.12451171875;-5.0933837890625E-06;-0.12408447265625;3;;
765;;;;;;;17403.3061470609;-0.1220703125;-4.638671875E-06;-0.1217041015625;3;;
766;;;;;;;17403.5502880603;-0.11962890625;-4.2510986328125E-06;-0.119232177734375;3;;
767;;;;;;;17403.7944290596;-0.1171875;-3.84521484375E-06;-0.11676025390625;3;;
768;;;;;;;17404.038570059;-0.11474609375;-3.50433349609375E-06;-0.114349365234375;3;;
769;;;;;;;17404.2827110584;-0.1123046875;-3.150634765625E-06;-0.11187744140625;3;;
770;;;;;;;17404.5268520578;-0.10986328125;-2.81005859375E-06;-0.109466552734375;3;;
771;;;;;;;17404.7709930572;-0.107421875;-2.5177001953125E-06;-0.1070556640625;3;;
772;;;;;;;17405.0151340566;-0.10498046875;-2.2857666015625E-06;-0.104644775390625;3;;
773;;;;;;;17405.2592750559;-0.1025390625;-1.94732666015625E-06;-0.102142333984375;3;;
774;;;;;;;17405.5034160553;-0.10009765625;-1.73248291015625E-06;-0.0997314453125;3;;
775;;;;;;;17405.7475570547;-0.09765625;-1.484375E-06;-0.097259521484375;3;;
776;;;;;;;17405.9916980541;-0.09521484375;-1.27960205078125E-06;-0.094818115234375;3;;
777;;;;;;;17406.2358390535;-0.0927734375;-1.06964111328125E-06;-0.09246826171875;3;;
778;;;;;;;17406.4799800529;-0.09033203125;-8.92333984375E-07;-0.09002685546875;3;;
779;;;;;;;17406.7241210522;-0.087890625;-7.0220947265625E-07;-0.087493896484375;3;;
780;;;;;;;17406.9682620516;-0.08544921875;-5.38330078125E-07;-0.08514404296875;3;;
781;;;;;;;17407.212403051;-0.0830078125;-3.643798828125E-07;-0.082733154296875;3;;
782;;;;;;;17407.4565440504;-0.08056640625;-2.1728515625E-07;-0.08026123046875;3;;
783;;;;;;;17407.7006850498;-0.078125;-6.65283203125E-08;-0.07781982421875;3;;
784;;;;;;;17407.9448260492;-0.07568359375;2.349853515625E-08;-0.07550048828125;3;;
785;;;;;;;17408.1889670485;-0.0732421875;1.6693115234375E-07;-0.072967529296875;3;;
786;;;;;;;17408.4331080479;-0.07080078125;2.9144287109375E-07;-0.070556640625;3;;
787;;;;;;;17408.6772490473;-0.068359375;4.0740966796875E-07;-0.068145751953125;3;;
788;;;;;;;17408.9213900467;-0.06591796875;5.1116943359375E-07;-0.0657958984375;3;;
789;;;;;;;17409.1655310461;-0.0634765625;6.1187744140625E-07;-0.063201904296875;3;;
790;;;;;;;17409.4096720455;-0.06103515625;6.94580078125E-07;-0.060943603515625;3;;
791;;;;;;;17409.6538130449;-0.05859375;7.9071044921875E-07;-0.058441162109375;3;;
792;;;;;;;17409.8979540442;-0.05615234375;8.941650390625E-07;-0.05621337890625;3;;
793;;;;;;;17410.1420950436;-0.0537109375;9.5123291015625E-07;-0.053558349609375;3;;
794;;;;;;;17410.386236043;-0.05126953125;1.0308837890625E-06;-0.05120849609375;3;;
795;;;;;;;17410.6303770424;-0.048828125;1.11480712890625E-06;-0.048443603515625;3;;
796;;;;;;;17410.8745180418;-0.04638671875;1.17767333984375E-06;-0.04599609375;3;;
797;;;;;;;17411.1186590412;-0.0439453125;1.275634765625E-06;-0.0436248779296875;3;;
798;;;;;;;17411.3628000405;-0.04150390625;1.3372802734375E-06;-0.0411407470703125;3;;
799;;;;;;;17411.6069410399;-0.0390625;1.41021728515625E-06;-0.038763427734375;3;;
800;;;;;;;17411.8510820393;-0.03662109375;1.4422607421875E-06;-0.0363494873046875;3;;
801;;;;;;;17412.0952230387;-0.0341796875;1.52801513671875E-06;-0.0338714599609375;3;;
802;;;;;;;17412.3393640381;-0.03173828125;1.56890869140625E-06;-0.0314910888671875;3;;
803;;;;;;;17412.5835050375;-0.029296875;1.6290283203125E-06;-0.0290771484375;3;;
804;;;;;;;17412.8276460368;-0.02685546875;1.69677734375E-06;-0.026568603515625;3;;
805;;;;;;;17413.0717870362;-0.0244140625;1.7254638671875E-06;-0.0242462158203125;3;;
806;;;;;;;17413.3159280356;-0.02197265625;1.7822265625E-06;-0.021697998046875;3;;
807;;;;;;;17413.560069035;-0.01953125;1.84539794921875E-06;-0.0192779541015625;3;;
808;;;;;;;17413.8042100344;-0.01708984375;1.87408447265625E-06;-0.0167510986328125;3;;
809;;;;;;;17414.0483510338;-0.0146484375;1.915283203125E-06;-0.014398193359375;3;;
810;;;;;;;17414.2924920331;-0.01220703125;1.99249267578125E-06;-0.011822509765625;3;;
811;;;;;;;17414.5366330325;-0.009765625;2.01873779296875E-06;-0.009478759765625;3;;
812;;;;;;;17414.7807740319;-0.00732421875;2.049560546875E-06;-0.0070220947265625;3;;
813;;;;;;;17415.0249150313;-0.0048828125;2.1044921875E-06;-0.004681396484375;3;;
814;;;;;;;17415.2690560307;-0.00244140625;2.1356201171875E-06;-0.00214538574218751;3;;
815;;;;;;;17415.5131970301;0;2.1685791015625E-06;0.000256347656250003;3;;
816;;;;;;;17415.7573380294;0.00244140625;2.20062255859375E-06;0.00272521972656251;3;;
817;;;;;;;17416.0014790288;0.0048828125;2.2210693359375E-06;0.00519409179687499;3;;
818;;;;;;;17416.2456200282;0.00732421875;2.2442626953125E-06;0.00757751464843751;3;;
819;;;;;;;17416.4897610276;0.009765625;2.2943115234375E-06;0.0100067138671875;3;;
820;;;;;;;17416.733902027;0.01220703125;2.33612060546875E-06;0.012469482421875;3;;
821;;;;;;;17416.9780430264;0.009765625;1.93206787109375E-06;0.0100250244140625;3;;
822;;;;;;;17417.2221840257;0.00732421875;1.70684814453125E-06;0.0075347900390625;3;;
823;;;;;;;17417.4663250251;0.0048828125;1.536865234375E-06;0.0050628662109375;3;;
824;;;;;;;17417.7104660245;0.00244140625;1.37054443359375E-06;0.002703857421875;3;;
825;;;;;;;17417.9546070239;0;1.234130859375E-06;0.000247192382812497;3;;
826;;;;;;;17418.1987480233;-0.00244140625;1.1187744140625E-06;-0.00220642089843751;3;;
827;;;;;;;17418.4428890227;-0.0048828125;1.00372314453125E-06;-0.0045806884765625;3;;
828;;;;;;;17418.687030022;-0.00732421875;9.04541015625E-07;-0.00708923339843751;3;;
829;;;;;;;17418.9311710214;-0.009765625;8.2763671875E-07;-0.0095245361328125;3;;
830;;;;;;;17419.1753120208;-0.01220703125;7.244873046875E-07;-0.0119354248046875;3;;
831;;;;;;;;;;;;;
832;;;;;;;;;;;;;
833;;;;;;;;;;;;;
834;;;;;;;;;;;;;
835;;;;;;;;;;;;;
836;;;;;;;;;;;;;
837;;;;;;;;;;;;;
838;;;;;;;;;;;;;
839;;;;;;;;;;;;;
840;;;;;;;;;;;;;
841;;;;;;;;;;;;;
842;;;;;;;;;;;;;
843;;;;;;;;;;;;;
844;;;;;;;;;;;;;
845;;;;;;;;;;;;;
846;;;;;;;;;;;;;
847;;;;;;;;;;;;;
848;;;;;;;;;;;;;
849;;;;;;;;;;;;;
850;;;;;;;;;;;;;
851;;;;;;;;;;;;;
852;;;;;;;;;;;;;
853;;;;;;;;;;;;;
854;;;;;;;;;;;;;
855;;;;;;;;;;;;;
856;;;;;;;;;;;;;
857;;;;;;;;;;;;;
858;;;;;;;;;;;;;
859;;;;;;;;;;;;;
860;;;;;;;;;;;;;
861;;;;;;;;;;;;;
862;;;;;;;;;;;;;
863;;;;;;;;;;;;;
864;;;;;;;;;;;;;
865;;;;;;;;;;;;;
866;;;;;;;;;;;;;
867;;;;;;;;;;;;;
868;;;;;;;;;;;;;
869;;;;;;;;;;;;;
870;;;;;;;;;;;;;
871;;;;;;;;;;;;;
872;;;;;;;;;;;;;
873;;;;;;;;;;;;;
874;;;;;;;;;;;;;
875;;;;;;;;;;;;;
876;;;;;;;;;;;;;
877;;;;;;;;;;;;;
878;;;;;;;;;;;;;
879;;;;;;;;;;;;;
880;;;;;;;;;;;;;
881;;;;;;;;;;;;;
882;;;;;;;;;;;;;
883;;;;;;;;;;;;;
884;;;;;;;;;;;;;
885;;;;;;;;;;;;;
886;;;;;;;;;;;;;
887;;;;;;;;;;;;;
888;;;;;;;;;;;;;
889;;;;;;;;;;;;;
890;;;;;;;;;;;;;
891;;;;;;;;;;;;;
892;;;;;;;;;;;;;
893;;;;;;;;;;;;;
894;;;;;;;;;;;;;
895;;;;;;;;;;;;;
896;;;;;;;;;;;;;
897;;;;;;;;;;;;;
898;;;;;;;;;;;;;
899;;;;;;;;;;;;;
900;;;;;;;;;;;;;
901;;;;;;;;;;;;;
902;;;;;;;;;;;;;
903;;;;;;;;;;;;;
904;;;;;;;;;;;;;
905;;;;;;;;;;;;;
906;;;;;;;;;;;;;
907;;;;;;;;;;;;;
908;;;;;;;;;;;;;
909;;;;;;;;;;;;;
910;;;;;;;;;;;;;
911;;;;;;;;;;;;;
912;;;;;;;;;;;;;
913;;;;;;;;;;;;;
914;;;;;;;;;;;;;
915;;;;;;;;;;;;;
916;;;;;;;;;;;;;
917;;;;;;;;;;;;;
918;;;;;;;;;;;;;
919;;;;;;;;;;;;;
920;;;;;;;;;;;;;
921;;;;;;;;;;;;;
922;;;;;;;;;;;;;
923;;;;;;;;;;;;;
924;;;;;;;;;;;;;
925;;;;;;;;;;;;;
926;;;;;;;;;;;;;
927;;;;;;;;;;;;;
928;;;;;;;;;;;;;
929;;;;;;;;;;;;;
930;;;;;;;;;;;;;
931;;;;;;;;;;;;;
932;;;;;;;;;;;;;
933;;;;;;;;;;;;;
934;;;;;;;;;;;;;
935;;;;;;;;;;;;;
936;;;;;;;;;;;;;
937;;;;;;;;;;;;;
938;;;;;;;;;;;;;
939;;;;;;;;;;;;;
940;;;;;;;;;;;;;
941;;;;;;;;;;;;;
942;;;;;;;;;;;;;
943;;;;;;;;;;;;;
944;;;;;;;;;;;;;
945;;;;;;;;;;;;;
946;;;;;;;;;;;;;
947;;;;;;;;;;;;;
948;;;;;;;;;;;;;
949;;;;;;;;;;;;;
950;;;;;;;;;;;;;
951;;;;;;;;;;;;;
952;;;;;;;;;;;;;
953;;;;;;;;;;;;;
954;;;;;;;;;;;;;
955;;;;;;;;;;;;;
956;;;;;;;;;;;;;
957;;;;;;;;;;;;;
958;;;;;;;;;;;;;
959;;;;;;;;;;;;;
960;;;;;;;;;;;;;
961;;;;;;;;;;;;;
962;;;;;;;;;;;;;
963;;;;;;;;;;;;;
964;;;;;;;;;;;;;
965;;;;;;;;;;;;;
966;;;;;;;;;;;;;
967;;;;;;;;;;;;;
968;;;;;;;;;;;;;
969;;;;;;;;;;;;;
970;;;;;;;;;;;;;
971;;;;;;;;;;;;;
972;;;;;;;;;;;;;
973;;;;;;;;;;;;;
974;;;;;;;;;;;;;
975;;;;;;;;;;;;;
976;;;;;;;;;;;;;
977;;;;;;;;;;;;;
978;;;;;;;;;;;;;
979;;;;;;;;;;;;;
980;;;;;;;;;;;;;
981;;;;;;;;;;;;;
982;;;;;;;;;;;;;
983;;;;;;;;;;;;;
984;;;;;;;;;;;;;
985;;;;;;;;;;;;;
986;;;;;;;;;;;;;
987;;;;;;;;;;;;;
988;;;;;;;;;;;;;
989;;;;;;;;;;;;;
990;;;;;;;;;;;;;
991;;;;;;;;;;;;;
992;;;;;;;;;;;;;
993;;;;;;;;;;;;;
994;;;;;;;;;;;;;
995;;;;;;;;;;;;;
996;;;;;;;;;;;;;
997;;;;;;;;;;;;;
998;;;;;;;;;;;;;
999;;;;;;;;;;;;;
1000;;;;;;;;;;;;;
1001;;;;;;;;;;;;;
1002;;;;;;;;;;;;;
1003;;;;;;;;;;;;;
1004;;;;;;;;;;;;;
1005;;;;;;;;;;;;;
1006;;;;;;;;;;;;;
1007;;;;;;;;;;;;;
1008;;;;;;;;;;;;;
1009;;;;;;;;;;;;;
1010;;;;;;;;;;;;;
1011;;;;;;;;;;;;;
1012;;;;;;;;;;;;;
1013;;;;;;;;;;;;;
1014;;;;;;;;;;;;;
1015;;;;;;;;;;;;;
1016;;;;;;;;;;;;;
1017;;;;;;;;;;;;;
1018;;;;;;;;;;;;;
1019;;;;;;;;;;;;;
1020;;;;;;;;;;;;;
1021;;;;;;;;;;;;;
1022;;;;;;;;;;;;;
1023;;;;;;;;;;;;;
1024;;;;;;;;;;;;;
1025;;;;;;;;;;;;;
1026;;;;;;;;;;;;;
1027;;;;;;;;;;;;;
1028;;;;;;;;;;;;;
1029;;;;;;;;;;;;;
1030;;;;;;;;;;;;;
1031;;;;;;;;;;;;;
1032;;;;;;;;;;;;;
1033;;;;;;;;;;;;;
1034;;;;;;;;;;;;;
1035;;;;;;;;;;;;;
1036;;;;;;;;;;;;;
1037;;;;;;;;;;;;;
1038;;;;;;;;;;;;;
1039;;;;;;;;;;;;;
1040;;;;;;;;;;;;;
1041;;;;;;;;;;;;;
1042;;;;;;;;;;;;;
1043;;;;;;;;;;;;;
1044;;;;;;;;;;;;;
1045;;;;;;;;;;;;;
1046;;;;;;;;;;;;;
1047;;;;;;;;;;;;;
1048;;;;;;;;;;;;;
1049;;;;;;;;;;;;;
1050;;;;;;;;;;;;;
1051;;;;;;;;;;;;;
1052;;;;;;;;;;;;;
1053;;;;;;;;;;;;;
1054;;;;;;;;;;;;;
1055;;;;;;;;;;;;;
1056;;;;;;;;;;;;;
1057;;;;;;;;;;;;;
1058;;;;;;;;;;;;;
1059;;;;;;;;;;;;;
1060;;;;;;;;;;;;;
1061;;;;;;;;;;;;;
1062;;;;;;;;;;;;;
1063;;;;;;;;;;;;;
1064;;;;;;;;;;;;;
1065;;;;;;;;;;;;;
1066;;;;;;;;;;;;;
1067;;;;;;;;;;;;;
1068;;;;;;;;;;;;;
1069;;;;;;;;;;;;;
1070;;;;;;;;;;;;;
1071;;;;;;;;;;;;;
1072;;;;;;;;;;;;;
1073;;;;;;;;;;;;;
1074;;;;;;;;;;;;;
1075;;;;;;;;;;;;;
1076;;;;;;;;;;;;;
1077;;;;;;;;;;;;;
1078;;;;;;;;;;;;;
1079;;;;;;;;;;;;;
1080;;;;;;;;;;;;;
1081;;;;;;;;;;;;;
1082;;;;;;;;;;;;;
1083;;;;;;;;;;;;;
1084;;;;;;;;;;;;;
1085;;;;;;;;;;;;;
1086;;;;;;;;;;;;;
1087;;;;;;;;;;;;;
1088;;;;;;;;;;;;;
1089;;;;;;;;;;;;;
1090;;;;;;;;;;;;;
1091;;;;;;;;;;;;;
1092;;;;;;;;;;;;;
1093;;;;;;;;;;;;;
1094;;;;;;;;;;;;;
1095;;;;;;;;;;;;;
1096;;;;;;;;;;;;;
1097;;;;;;;;;;;;;
1098;;;;;;;;;;;;;
1099;;;;;;;;;;;;;
1100;;;;;;;;;;;;;
1101;;;;;;;;;;;;;
1102;;;;;;;;;;;;;
1103;;;;;;;;;;;;;
1104;;;;;;;;;;;;;
1105;;;;;;;;;;;;;
1106;;;;;;;;;;;;;
1107;;;;;;;;;;;;;
1108;;;;;;;;;;;;;
1109;;;;;;;;;;;;;
1110;;;;;;;;;;;;;
1111;;;;;;;;;;;;;
1112;;;;;;;;;;;;;
1113;;;;;;;;;;;;;
1114;;;;;;;;;;;;;
1115;;;;;;;;;;;;;
1116;;;;;;;;;;;;;
1117;;;;;;;;;;;;;
1118;;;;;;;;;;;;;
1119;;;;;;;;;;;;;
1120;;;;;;;;;;;;;
1121;;;;;;;;;;;;;
1122;;;;;;;;;;;;;
1123;;;;;;;;;;;;;
1124;;;;;;;;;;;;;
1125;;;;;;;;;;;;;
1126;;;;;;;;;;;;;
1127;;;;;;;;;;;;;
1128;;;;;;;;;;;;;
1129;;;;;;;;;;;;;
1130;;;;;;;;;;;;;
1131;;;;;;;;;;;;;
1132;;;;;;;;;;;;;
1133;;;;;;;;;;;;;
1134;;;;;;;;;;;;;
1135;;;;;;;;;;;;;
1136;;;;;;;;;;;;;
1137;;;;;;;;;;;;;
1138;;;;;;;;;;;;;
1139;;;;;;;;;;;;;
1140;;;;;;;;;;;;;
1141;;;;;;;;;;;;;
1142;;;;;;;;;;;;;
1143;;;;;;;;;;;;;
1144;;;;;;;;;;;;;
1145;;;;;;;;;;;;;
1146;;;;;;;;;;;;;
1147;;;;;;;;;;;;;
1148;;;;;;;;;;;;;
1149;;;;;;;;;;;;;
1150;;;;;;;;;;;;;
1151;;;;;;;;;;;;;
1152;;;;;;;;;;;;;
1153;;;;;;;;;;;;;
1154;;;;;;;;;;;;;
1155;;;;;;;;;;;;;
1156;;;;;;;;;;;;;
1157;;;;;;;;;;;;;
1158;;;;;;;;;;;;;
1159;;;;;;;;;;;;;
1160;;;;;;;;;;;;;
1161;;;;;;;;;;;;;
1162;;;;;;;;;;;;;
1163;;;;;;;;;;;;;
1164;;;;;;;;;;;;;
1165;;;;;;;;;;;;;
1166;;;;;;;;;;;;;
1167;;;;;;;;;;;;;
1168;;;;;;;;;;;;;
1169;;;;;;;;;;;;;
1170;;;;;;;;;;;;;
1171;;;;;;;;;;;;;
1172;;;;;;;;;;;;;
1173;;;;;;;;;;;;;
1174;;;;;;;;;;;;;
1175;;;;;;;;;;;;;
1176;;;;;;;;;;;;;
1177;;;;;;;;;;;;;
1178;;;;;;;;;;;;;
1179;;;;;;;;;;;;;
1180;;;;;;;;;;;;;
1181;;;;;;;;;;;;;
1182;;;;;;;;;;;;;
1183;;;;;;;;;;;;;
1184;;;;;;;;;;;;;
1185;;;;;;;;;;;;;
1186;;;;;;;;;;;;;
1187;;;;;;;;;;;;;
1188;;;;;;;;;;;;;
1189;;;;;;;;;;;;;
1190;;;;;;;;;;;;;
1191;;;;;;;;;;;;;
1192;;;;;;;;;;;;;
1193;;;;;;;;;;;;;
1194;;;;;;;;;;;;;
1195;;;;;;;;;;;;;
1196;;;;;;;;;;;;;
1197;;;;;;;;;;;;;
1198;;;;;;;;;;;;;
1199;;;;;;;;;;;;;
1200;;;;;;;;;;;;;
1201;;;;;;;;;;;;;
1202;;;;;;;;;;;;;
1203;;;;;;;;;;;;;
1204;;;;;;;;;;;;;
1205;;;;;;;;;;;;;
1206;;;;;;;;;;;;;
1207;;;;;;;;;;;;;
1208;;;;;;;;;;;;;
1209;;;;;;;;;;;;;
1210;;;;;;;;;;;;;
1211;;;;;;;;;;;;;
1212;;;;;;;;;;;;;
1213;;;;;;;;;;;;;
1214;;;;;;;;;;;;;
1215;;;;;;;;;;;;;
1216;;;;;;;;;;;;;
1217;;;;;;;;;;;;;
1218;;;;;;;;;;;;;
1219;;;;;;;;;;;;;
1220;;;;;;;;;;;;;
1221;;;;;;;;;;;;;
1222;;;;;;;;;;;;;
1223;;;;;;;;;;;;;
1224;;;;;;;;;;;;;
1225;;;;;;;;;;;;;
1226;;;;;;;;;;;;;
1227;;;;;;;;;;;;;
1228;;;;;;;;;;;;;
1229;;;;;;;;;;;;;
1230;;;;;;;;;;;;;
1231;;;;;;;;;;;;;
1232;;;;;;;;;;;;;
1233;;;;;;;;;;;;;
1234;;;;;;;;;;;;;
1235;;;;;;;;;;;;;
1236;;;;;;;;;;;;;
1237;;;;;;;;;;;;;
1238;;;;;;;;;;;;;
1239;;;;;;;;;;;;;
1240;;;;;;;;;;;;;
1241;;;;;;;;;;;;;
1242;;;;;;;;;;;;;
1243;;;;;;;;;;;;;
1244;;;;;;;;;;;;;
1245;;;;;;;;;;;;;
1246;;;;;;;;;;;;;
1247;;;;;;;;;;;;;
1248;;;;;;;;;;;;;
1249;;;;;;;;;;;;;
1250;;;;;;;;;;;;;
1251;;;;;;;;;;;;;
1252;;;;;;;;;;;;;
1253;;;;;;;;;;;;;
1254;;;;;;;;;;;;;
1255;;;;;;;;;;;;;
1256;;;;;;;;;;;;;
1257;;;;;;;;;;;;;
1258;;;;;;;;;;;;;
1259;;;;;;;;;;;;;
1260;;;;;;;;;;;;;
1261;;;;;;;;;;;;;
1262;;;;;;;;;;;;;
1263;;;;;;;;;;;;;
1264;;;;;;;;;;;;;
1265;;;;;;;;;;;;;
1266;;;;;;;;;;;;;
1267;;;;;;;;;;;;;
1268;;;;;;;;;;;;;
1269;;;;;;;;;;;;;
1270;;;;;;;;;;;;;
1271;;;;;;;;;;;;;
1272;;;;;;;;;;;;;
1273;;;;;;;;;;;;;
1274;;;;;;;;;;;;;
1275;;;;;;;;;;;;;
1276;;;;;;;;;;;;;
1277;;;;;;;;;;;;;
1278;;;;;;;;;;;;;
1279;;;;;;;;;;;;;
1280;;;;;;;;;;;;;
1281;;;;;;;;;;;;;
1282;;;;;;;;;;;;;
1283;;;;;;;;;;;;;
1284;;;;;;;;;;;;;
1285;;;;;;;;;;;;;
1286;;;;;;;;;;;;;
1287;;;;;;;;;;;;;
1288;;;;;;;;;;;;;
1289;;;;;;;;;;;;;
1290;;;;;;;;;;;;;
1291;;;;;;;;;;;;;
1292;;;;;;;;;;;;;
1293;;;;;;;;;;;;;
1294;;;;;;;;;;;;;
1295;;;;;;;;;;;;;
1296;;;;;;;;;;;;;
1297;;;;;;;;;;;;;
1298;;;;;;;;;;;;;
1299;;;;;;;;;;;;;
1300;;;;;;;;;;;;;
1301;;;;;;;;;;;;;
1302;;;;;;;;;;;;;
1303;;;;;;;;;;;;;
1304;;;;;;;;;;;;;
1305;;;;;;;;;;;;;
1306;;;;;;;;;;;;;
1307;;;;;;;;;;;;;
1308;;;;;;;;;;;;;
1309;;;;;;;;;;;;;
1310;;;;;;;;;;;;;
1311;;;;;;;;;;;;;
1312;;;;;;;;;;;;;
1313;;;;;;;;;;;;;
1314;;;;;;;;;;;;;
1315;;;;;;;;;;;;;
1316;;;;;;;;;;;;;
1317;;;;;;;;;;;;;
1318;;;;;;;;;;;;;
1319;;;;;;;;;;;;;
1320;;;;;;;;;;;;;
1321;;;;;;;;;;;;;
1322;;;;;;;;;;;;;
1323;;;;;;;;;;;;;
1324;;;;;;;;;;;;;
1325;;;;;;;;;;;;;
1326;;;;;;;;;;;;;
1327;;;;;;;;;;;;;
1328;;;;;;;;;;;;;
1329;;;;;;;;;;;;;
1330;;;;;;;;;;;;;
1331;;;;;;;;;;;;;
1332;;;;;;;;;;;;;
1333;;;;;;;;;;;;;
1334;;;;;;;;;;;;;
1335;;;;;;;;;;;;;
1336;;;;;;;;;;;;;
1337;;;;;;;;;;;;;
1338;;;;;;;;;;;;;
1339;;;;;;;;;;;;;
1340;;;;;;;;;;;;;
1341;;;;;;;;;;;;;
1342;;;;;;;;;;;;;
1343;;;;;;;;;;;;;
1344;;;;;;;;;;;;;
1345;;;;;;;;;;;;;
1346;;;;;;;;;;;;;
1347;;;;;;;;;;;;;
1348;;;;;;;;;;;;;
1349;;;;;;;;;;;;;
1350;;;;;;;;;;;;;
1351;;;;;;;;;;;;;
1352;;;;;;;;;;;;;
1353;;;;;;;;;;;;;
1354;;;;;;;;;;;;;
1355;;;;;;;;;;;;;
1356;;;;;;;;;;;;;
1357;;;;;;;;;;;;;
1358;;;;;;;;;;;;;
1359;;;;;;;;;;;;;
1360;;;;;;;;;;;;;
1361;;;;;;;;;;;;;
1362;;;;;;;;;;;;;
1363;;;;;;;;;;;;;
1364;;;;;;;;;;;;;
1365;;;;;;;;;;;;;
1366;;;;;;;;;;;;;
1367;;;;;;;;;;;;;
1368;;;;;;;;;;;;;
1369;;;;;;;;;;;;;
1370;;;;;;;;;;;;;
1371;;;;;;;;;;;;;
1372;;;;;;;;;;;;;
1373;;;;;;;;;;;;;
1374;;;;;;;;;;;;;
1375;;;;;;;;;;;;;
1376;;;;;;;;;;;;;
1377;;;;;;;;;;;;;
1378;;;;;;;;;;;;;
1379;;;;;;;;;;;;;
1380;;;;;;;;;;;;;
1381;;;;;;;;;;;;;
1382;;;;;;;;;;;;;
1383;;;;;;;;;;;;;
1384;;;;;;;;;;;;;
1385;;;;;;;;;;;;;
1386;;;;;;;;;;;;;
1387;;;;;;;;;;;;;
1388;;;;;;;;;;;;;
1389;;;;;;;;;;;;;
1390;;;;;;;;;;;;;
1391;;;;;;;;;;;;;
1392;;;;;;;;;;;;;
1393;;;;;;;;;;;;;
1394;;;;;;;;;;;;;
1395;;;;;;;;;;;;;
1396;;;;;;;;;;;;;
1397;;;;;;;;;;;;;
1398;;;;;;;;;;;;;
1399;;;;;;;;;;;;;
1400;;;;;;;;;;;;;
1401;;;;;;;;;;;;;
1402;;;;;;;;;;;;;
1403;;;;;;;;;;;;;
1404;;;;;;;;;;;;;
1405;;;;;;;;;;;;;
1406;;;;;;;;;;;;;
1407;;;;;;;;;;;;;
1408;;;;;;;;;;;;;
1409;;;;;;;;;;;;;
1410;;;;;;;;;;;;;
1411;;;;;;;;;;;;;
1412;;;;;;;;;;;;;
1413;;;;;;;;;;;;;
1414;;;;;;;;;;;;;
1415;;;;;;;;;;;;;
1416;;;;;;;;;;;;;
1417;;;;;;;;;;;;;
1418;;;;;;;;;;;;;
1419;;;;;;;;;;;;;
1420;;;;;;;;;;;;;
1421;;;;;;;;;;;;;
1422;;;;;;;;;;;;;
1423;;;;;;;;;;;;;
1424;;;;;;;;;;;;;
1425;;;;;;;;;;;;;
1426;;;;;;;;;;;;;
1427;;;;;;;;;;;;;
1428;;;;;;;;;;;;;
1429;;;;;;;;;;;;;
1430;;;;;;;;;;;;;
1431;;;;;;;;;;;;;
1432;;;;;;;;;;;;;
1433;;;;;;;;;;;;;
1434;;;;;;;;;;;;;
1435;;;;;;;;;;;;;
1436;;;;;;;;;;;;;
1437;;;;;;;;;;;;;
1438;;;;;;;;;;;;;
1439;;;;;;;;;;;;;
1440;;;;;;;;;;;;;
1441;;;;;;;;;;;;;
1442;;;;;;;;;;;;;
1443;;;;;;;;;;;;;
1444;;;;;;;;;;;;;
1445;;;;;;;;;;;;;
1446;;;;;;;;;;;;;
1447;;;;;;;;;;;;;
1448;;;;;;;;;;;;;
1449;;;;;;;;;;;;;
1450;;;;;;;;;;;;;
1451;;;;;;;;;;;;;
1452;;;;;;;;;;;;;
1453;;;;;;;;;;;;;
1454;;;;;;;;;;;;;
1455;;;;;;;;;;;;;
1456;;;;;;;;;;;;;
1457;;;;;;;;;;;;;
1458;;;;;;;;;;;;;
1459;;;;;;;;;;;;;
1460;;;;;;;;;;;;;
1461;;;;;;;;;;;;;
1462;;;;;;;;;;;;;
1463;;;;;;;;;;;;;
1464;;;;;;;;;;;;;
1465;;;;;;;;;;;;;
1466;;;;;;;;;;;;;
1467;;;;;;;;;;;;;
1468;;;;;;;;;;;;;
1469;;;;;;;;;;;;;
1470;;;;;;;;;;;;;
1471;;;;;;;;;;;;;
1472;;;;;;;;;;;;;
1473;;;;;;;;;;;;;
1474;;;;;;;;;;;;;
1475;;;;;;;;;;;;;
1476;;;;;;;;;;;;;
1477;;;;;;;;;;;;;
1478;;;;;;;;;;;;;
1479;;;;;;;;;;;;;
1480;;;;;;;;;;;;;
1481;;;;;;;;;;;;;
1482;;;;;;;;;;;;;
1483;;;;;;;;;;;;;
1484;;;;;;;;;;;;;
1485;;;;;;;;;;;;;
1486;;;;;;;;;;;;;
1487;;;;;;;;;;;;;
1488;;;;;;;;;;;;;
1489;;;;;;;;;;;;;
1490;;;;;;;;;;;;;
1491;;;;;;;;;;;;;
1492;;;;;;;;;;;;;
1493;;;;;;;;;;;;;
1494;;;;;;;;;;;;;
1495;;;;;;;;;;;;;
1496;;;;;;;;;;;;;
1497;;;;;;;;;;;;;
1498;;;;;;;;;;;;;
1499;;;;;;;;;;;;;
1500;;;;;;;;;;;;;
1501;;;;;;;;;;;;;
1502;;;;;;;;;;;;;
1503;;;;;;;;;;;;;
1504;;;;;;;;;;;;;
1505;;;;;;;;;;;;;
1506;;;;;;;;;;;;;
1507;;;;;;;;;;;;;
1508;;;;;;;;;;;;;
1509;;;;;;;;;;;;;
1510;;;;;;;;;;;;;
1511;;;;;;;;;;;;;
1512;;;;;;;;;;;;;
1513;;;;;;;;;;;;;
1514;;;;;;;;;;;;;
1515;;;;;;;;;;;;;
1516;;;;;;;;;;;;;
1517;;;;;;;;;;;;;
1518;;;;;;;;;;;;;
1519;;;;;;;;;;;;;
1520;;;;;;;;;;;;;
1521;;;;;;;;;;;;;
1522;;;;;;;;;;;;;
1523;;;;;;;;;;;;;
1524;;;;;;;;;;;;;
1525;;;;;;;;;;;;;
1526;;;;;;;;;;;;;
1527;;;;;;;;;;;;;
1528;;;;;;;;;;;;;
1529;;;;;;;;;;;;;
1530;;;;;;;;;;;;;
1531;;;;;;;;;;;;;
1532;;;;;;;;;;;;;
1533;;;;;;;;;;;;;
1534;;;;;;;;;;;;;
1535;;;;;;;;;;;;;
1536;;;;;;;;;;;;;
1537;;;;;;;;;;;;;
1538;;;;;;;;;;;;;
1539;;;;;;;;;;;;;
1540;;;;;;;;;;;;;
1541;;;;;;;;;;;;;
1542;;;;;;;;;;;;;
1543;;;;;;;;;;;;;
1544;;;;;;;;;;;;;
1545;;;;;;;;;;;;;
1546;;;;;;;;;;;;;
1547;;;;;;;;;;;;;
1548;;;;;;;;;;;;;
1549;;;;;;;;;;;;;
1550;;;;;;;;;;;;;
1551;;;;;;;;;;;;;
1552;;;;;;;;;;;;;
1553;;;;;;;;;;;;;
1554;;;;;;;;;;;;;
1555;;;;;;;;;;;;;
1556;;;;;;;;;;;;;
1557;;;;;;;;;;;;;
1558;;;;;;;;;;;;;
1559;;;;;;;;;;;;;
1560;;;;;;;;;;;;;
1561;;;;;;;;;;;;;
1562;;;;;;;;;;;;;
1563;;;;;;;;;;;;;
1564;;;;;;;;;;;;;
1565;;;;;;;;;;;;;
1566;;;;;;;;;;;;;
1567;;;;;;;;;;;;;
1568;;;;;;;;;;;;;
1569;;;;;;;;;;;;;
1570;;;;;;;;;;;;;
1571;;;;;;;;;;;;;
1572;;;;;;;;;;;;;
1573;;;;;;;;;;;;;
1574;;;;;;;;;;;;;
1575;;;;;;;;;;;;;
1576;;;;;;;;;;;;;
1577;;;;;;;;;;;;;
1578;;;;;;;;;;;;;
1579;;;;;;;;;;;;;
1580;;;;;;;;;;;;;
1581;;;;;;;;;;;;;
1582;;;;;;;;;;;;;
1583;;;;;;;;;;;;;
1584;;;;;;;;;;;;;
1585;;;;;;;;;;;;;
1586;;;;;;;;;;;;;
1587;;;;;;;;;;;;;
1588;;;;;;;;;;;;;
1589;;;;;;;;;;;;;
1590;;;;;;;;;;;;;
1591;;;;;;;;;;;;;
1592;;;;;;;;;;;;;
1593;;;;;;;;;;;;;
1594;;;;;;;;;;;;;
1595;;;;;;;;;;;;;
1596;;;;;;;;;;;;;
1597;;;;;;;;;;;;;
1598;;;;;;;;;;;;;
1599;;;;;;;;;;;;;
1600;;;;;;;;;;;;;
1601;;;;;;;;;;;;;
1602;;;;;;;;;;;;;
1603;;;;;;;;;;;;;
1604;;;;;;;;;;;;;
1605;;;;;;;;;;;;;
1606;;;;;;;;;;;;;
1607;;;;;;;;;;;;;
1608;;;;;;;;;;;;;
1609;;;;;;;;;;;;;
1610;;;;;;;;;;;;;
1611;;;;;;;;;;;;;
1612;;;;;;;;;;;;;
1613;;;;;;;;;;;;;
1614;;;;;;;;;;;;;
1615;;;;;;;;;;;;;
1616;;;;;;;;;;;;;
1617;;;;;;;;;;;;;
1618;;;;;;;;;;;;;
1619;;;;;;;;;;;;;
1620;;;;;;;;;;;;;
1621;;;;;;;;;;;;;
1622;;;;;;;;;;;;;
1623;;;;;;;;;;;;;
1624;;;;;;;;;;;;;
1625;;;;;;;;;;;;;
1626;;;;;;;;;;;;;
1627;;;;;;;;;;;;;
1628;;;;;;;;;;;;;
1629;;;;;;;;;;;;;
1630;;;;;;;;;;;;;
1631;;;;;;;;;;;;;
1632;;;;;;;;;;;;;
1633;;;;;;;;;;;;;
1634;;;;;;;;;;;;;
1635;;;;;;;;;;;;;
1636;;;;;;;;;;;;;
1637;;;;;;;;;;;;;
1638;;;;;;;;;;;;;
1639;;;;;;;;;;;;;
1640;;;;;;;;;;;;;
1641;;;;;;;;;;;;;
1642;;;;;;;;;;;;;
1643;;;;;;;;;;;;;
1644;;;;;;;;;;;;;
1645;;;;;;;;;;;;;
1646;;;;;;;;;;;;;
1647;;;;;;;;;;;;;
1648;;;;;;;;;;;;;
1649;;;;;;;;;;;;;
1650;;;;;;;;;;;;;
1651;;;;;;;;;;;;;
1652;;;;;;;;;;;;;
1653;;;;;;;;;;;;;
1654;;;;;;;;;;;;;
1655;;;;;;;;;;;;;
1656;;;;;;;;;;;;;
1657;;;;;;;;;;;;;
1658;;;;;;;;;;;;;
1659;;;;;;;;;;;;;
1660;;;;;;;;;;;;;
1661;;;;;;;;;;;;;
1662;;;;;;;;;;;;;
1663;;;;;;;;;;;;;
1664;;;;;;;;;;;;;
1665;;;;;;;;;;;;;
1666;;;;;;;;;;;;;
1667;;;;;;;;;;;;;
1668;;;;;;;;;;;;;
1669;;;;;;;;;;;;;
1670;;;;;;;;;;;;;
1671;;;;;;;;;;;;;
1672;;;;;;;;;;;;;
1673;;;;;;;;;;;;;
1674;;;;;;;;;;;;;
1675;;;;;;;;;;;;;
1676;;;;;;;;;;;;;
1677;;;;;;;;;;;;;
1678;;;;;;;;;;;;;
1679;;;;;;;;;;;;;
1680;;;;;;;;;;;;;
1681;;;;;;;;;;;;;
1682;;;;;;;;;;;;;
1683;;;;;;;;;;;;;
1684;;;;;;;;;;;;;
1685;;;;;;;;;;;;;
1686;;;;;;;;;;;;;
1687;;;;;;;;;;;;;
1688;;;;;;;;;;;;;
1689;;;;;;;;;;;;;
1690;;;;;;;;;;;;;
1691;;;;;;;;;;;;;
1692;;;;;;;;;;;;;
1693;;;;;;;;;;;;;
1694;;;;;;;;;;;;;
1695;;;;;;;;;;;;;
1696;;;;;;;;;;;;;
1697;;;;;;;;;;;;;
1698;;;;;;;;;;;;;
1699;;;;;;;;;;;;;
1700;;;;;;;;;;;;;
1701;;;;;;;;;;;;;
1702;;;;;;;;;;;;;
1703;;;;;;;;;;;;;
1704;;;;;;;;;;;;;
1705;;;;;;;;;;;;;
1706;;;;;;;;;;;;;
1707;;;;;;;;;;;;;
1708;;;;;;;;;;;;;
1709;;;;;;;;;;;;;
1710;;;;;;;;;;;;;
1711;;;;;;;;;;;;;
1712;;;;;;;;;;;;;
1713;;;;;;;;;;;;;
1714;;;;;;;;;;;;;
1715;;;;;;;;;;;;;
1716;;;;;;;;;;;;;
1717;;;;;;;;;;;;;
1718;;;;;;;;;;;;;
1719;;;;;;;;;;;;;
1720;;;;;;;;;;;;;
1721;;;;;;;;;;;;;
1722;;;;;;;;;;;;;
1723;;;;;;;;;;;;;
1724;;;;;;;;;;;;;
1725;;;;;;;;;;;;;
1726;;;;;;;;;;;;;
1727;;;;;;;;;;;;;
1728;;;;;;;;;;;;;
1729;;;;;;;;;;;;;
1730;;;;;;;;;;;;;
1731;;;;;;;;;;;;;
1732;;;;;;;;;;;;;
1733;;;;;;;;;;;;;
1734;;;;;;;;;;;;;
1735;;;;;;;;;;;;;
1736;;;;;;;;;;;;;
1737;;;;;;;;;;;;;
1738;;;;;;;;;;;;;
1739;;;;;;;;;;;;;
1740;;;;;;;;;;;;;
1741;;;;;;;;;;;;;
1742;;;;;;;;;;;;;
1743;;;;;;;;;;;;;
1744;;;;;;;;;;;;;
1745;;;;;;;;;;;;;
1746;;;;;;;;;;;;;
1747;;;;;;;;;;;;;
1748;;;;;;;;;;;;;
1749;;;;;;;;;;;;;
1750;;;;;;;;;;;;;
1751;;;;;;;;;;;;;
1752;;;;;;;;;;;;;
1753;;;;;;;;;;;;;
1754;;;;;;;;;;;;;
1755;;;;;;;;;;;;;
1756;;;;;;;;;;;;;
1757;;;;;;;;;;;;;
1758;;;;;;;;;;;;;
1759;;;;;;;;;;;;;
1760;;;;;;;;;;;;;
1761;;;;;;;;;;;;;
1762;;;;;;;;;;;;;
1763;;;;;;;;;;;;;
1764;;;;;;;;;;;;;
1765;;;;;;;;;;;;;
1766;;;;;;;;;;;;;
1767;;;;;;;;;;;;;
1768;;;;;;;;;;;;;
1769;;;;;;;;;;;;;
1770;;;;;;;;;;;;;
1771;;;;;;;;;;;;;
1772;;;;;;;;;;;;;
1773;;;;;;;;;;;;;
1774;;;;;;;;;;;;;
1775;;;;;;;;;;;;;
1776;;;;;;;;;;;;;
1777;;;;;;;;;;;;;
1778;;;;;;;;;;;;;
1779;;;;;;;;;;;;;
1780;;;;;;;;;;;;;
1781;;;;;;;;;;;;;
1782;;;;;;;;;;;;;
1783;;;;;;;;;;;;;
1784;;;;;;;;;;;;;
1785;;;;;;;;;;;;;
1786;;;;;;;;;;;;;
1787;;;;;;;;;;;;;
1788;;;;;;;;;;;;;
1789;;;;;;;;;;;;;
1790;;;;;;;;;;;;;
1791;;;;;;;;;;;;;
1792;;;;;;;;;;;;;
1793;;;;;;;;;;;;;
1794;;;;;;;;;;;;;
1795;;;;;;;;;;;;;
1796;;;;;;;;;;;;;
1797;;;;;;;;;;;;;
1798;;;;;;;;;;;;;
1799;;;;;;;;;;;;;
1800;;;;;;;;;;;;;
1801;;;;;;;;;;;;;
1802;;;;;;;;;;;;;
1803;;;;;;;;;;;;;
1804;;;;;;;;;;;;;
1805;;;;;;;;;;;;;
1806;;;;;;;;;;;;;
1807;;;;;;;;;;;;;
1808;;;;;;;;;;;;;
1809;;;;;;;;;;;;;
1810;;;;;;;;;;;;;
1811;;;;;;;;;;;;;
1812;;;;;;;;;;;;;
1813;;;;;;;;;;;;;
1814;;;;;;;;;;;;;
1815;;;;;;;;;;;;;
1816;;;;;;;;;;;;;
1817;;;;;;;;;;;;;
1818;;;;;;;;;;;;;
1819;;;;;;;;;;;;;
1820;;;;;;;;;;;;;
1821;;;;;;;;;;;;;
1822;;;;;;;;;;;;;
1823;;;;;;;;;;;;;
1824;;;;;;;;;;;;;
1825;;;;;;;;;;;;;
1826;;;;;;;;;;;;;
1827;;;;;;;;;;;;;
1828;;;;;;;;;;;;;
1829;;;;;;;;;;;;;
1830;;;;;;;;;;;;;
1831;;;;;;;;;;;;;
1832;;;;;;;;;;;;;
1833;;;;;;;;;;;;;
1834;;;;;;;;;;;;;
1835;;;;;;;;;;;;;
1836;;;;;;;;;;;;;
1837;;;;;;;;;;;;;
1838;;;;;;;;;;;;;
1839;;;;;;;;;;;;;
1840;;;;;;;;;;;;;
1841;;;;;;;;;;;;;
1842;;;;;;;;;;;;;
1843;;;;;;;;;;;;;
1844;;;;;;;;;;;;;
1845;;;;;;;;;;;;;
1846;;;;;;;;;;;;;
1847;;;;;;;;;;;;;
1848;;;;;;;;;;;;;
1849;;;;;;;;;;;;;
1850;;;;;;;;;;;;;
1851;;;;;;;;;;;;;
1852;;;;;;;;;;;;;
1853;;;;;;;;;;;;;
1854;;;;;;;;;;;;;
1855;;;;;;;;;;;;;
1856;;;;;;;;;;;;;
1857;;;;;;;;;;;;;
1858;;;;;;;;;;;;;
1859;;;;;;;;;;;;;
1860;;;;;;;;;;;;;
1861;;;;;;;;;;;;;
1862;;;;;;;;;;;;;
1863;;;;;;;;;;;;;
1864;;;;;;;;;;;;;
1865;;;;;;;;;;;;;
1866;;;;;;;;;;;;;
1867;;;;;;;;;;;;;
1868;;;;;;;;;;;;;
1869;;;;;;;;;;;;;
1870;;;;;;;;;;;;;
1871;;;;;;;;;;;;;
1872;;;;;;;;;;;;;
1873;;;;;;;;;;;;;
1874;;;;;;;;;;;;;
1875;;;;;;;;;;;;;
1876;;;;;;;;;;;;;
1877;;;;;;;;;;;;;
1878;;;;;;;;;;;;;
1879;;;;;;;;;;;;;
1880;;;;;;;;;;;;;
1881;;;;;;;;;;;;;
1882;;;;;;;;;;;;;
1883;;;;;;;;;;;;;
1884;;;;;;;;;;;;;
1885;;;;;;;;;;;;;
1886;;;;;;;;;;;;;
1887;;;;;;;;;;;;;
1888;;;;;;;;;;;;;
1889;;;;;;;;;;;;;
1890;;;;;;;;;;;;;
1891;;;;;;;;;;;;;
1892;;;;;;;;;;;;;
1893;;;;;;;;;;;;;
1894;;;;;;;;;;;;;
1895;;;;;;;;;;;;;
1896;;;;;;;;;;;;;
1897;;;;;;;;;;;;;
1898;;;;;;;;;;;;;
1899;;;;;;;;;;;;;
1900;;;;;;;;;;;;;
1901;;;;;;;;;;;;;
1902;;;;;;;;;;;;;
1903;;;;;;;;;;;;;
1904;;;;;;;;;;;;;
1905;;;;;;;;;;;;;
1906;;;;;;;;;;;;;
1907;;;;;;;;;;;;;
1908;;;;;;;;;;;;;
1909;;;;;;;;;;;;;
1910;;;;;;;;;;;;;
1911;;;;;;;;;;;;;
1912;;;;;;;;;;;;;
1913;;;;;;;;;;;;;
1914;;;;;;;;;;;;;
1915;;;;;;;;;;;;;
1916;;;;;;;;;;;;;
1917;;;;;;;;;;;;;
1918;;;;;;;;;;;;;
1919;;;;;;;;;;;;;
1920;;;;;;;;;;;;;
1921;;;;;;;;;;;;;
1922;;;;;;;;;;;;;
1923;;;;;;;;;;;;;
1924;;;;;;;;;;;;;
1925;;;;;;;;;;;;;
1926;;;;;;;;;;;;;
1927;;;;;;;;;;;;;
1928;;;;;;;;;;;;;
1929;;;;;;;;;;;;;
1930;;;;;;;;;;;;;
1931;;;;;;;;;;;;;
1932;;;;;;;;;;;;;
1933;;;;;;;;;;;;;
1934;;;;;;;;;;;;;
1935;;;;;;;;;;;;;
1936;;;;;;;;;;;;;
1937;;;;;;;;;;;;;
1938;;;;;;;;;;;;;
1939;;;;;;;;;;;;;
1940;;;;;;;;;;;;;
1941;;;;;;;;;;;;;
1942;;;;;;;;;;;;;
1943;;;;;;;;;;;;;
1944;;;;;;;;;;;;;
1945;;;;;;;;;;;;;
1946;;;;;;;;;;;;;
1947;;;;;;;;;;;;;
1948;;;;;;;;;;;;;
1949;;;;;;;;;;;;;
1950;;;;;;;;;;;;;
1951;;;;;;;;;;;;;
1952;;;;;;;;;;;;;
1953;;;;;;;;;;;;;
1954;;;;;;;;;;;;;
1955;;;;;;;;;;;;;
1956;;;;;;;;;;;;;
1957;;;;;;;;;;;;;
1958;;;;;;;;;;;;;
1959;;;;;;;;;;;;;
1960;;;;;;;;;;;;;
1961;;;;;;;;;;;;;
1962;;;;;;;;;;;;;
1963;;;;;;;;;;;;;
1964;;;;;;;;;;;;;
1965;;;;;;;;;;;;;
1966;;;;;;;;;;;;;
1967;;;;;;;;;;;;;
1968;;;;;;;;;;;;;
1969;;;;;;;;;;;;;
1970;;;;;;;;;;;;;
1971;;;;;;;;;;;;;
1972;;;;;;;;;;;;;
1973;;;;;;;;;;;;;
1974;;;;;;;;;;;;;
1975;;;;;;;;;;;;;
1976;;;;;;;;;;;;;
1977;;;;;;;;;;;;;
1978;;;;;;;;;;;;;
1979;;;;;;;;;;;;;
1980;;;;;;;;;;;;;
1981;;;;;;;;;;;;;
1982;;;;;;;;;;;;;
1983;;;;;;;;;;;;;
1984;;;;;;;;;;;;;
1985;;;;;;;;;;;;;
1986;;;;;;;;;;;;;
1987;;;;;;;;;;;;;
1988;;;;;;;;;;;;;
1989;;;;;;;;;;;;;
1990;;;;;;;;;;;;;
1991;;;;;;;;;;;;;
1992;;;;;;;;;;;;;
1993;;;;;;;;;;;;;
1994;;;;;;;;;;;;;
1995;;;;;;;;;;;;;
1996;;;;;;;;;;;;;
1997;;;;;;;;;;;;;
1998;;;;;;;;;;;;;
1999;;;;;;;;;;;;;
2000;;;;;;;;;;;;;
2001;;;;;;;;;;;;;
2002;;;;;;;;;;;;;
2003;;;;;;;;;;;;;
2004;;;;;;;;;;;;;
2005;;;;;;;;;;;;;
2006;;;;;;;;;;;;;
2007;;;;;;;;;;;;;
2008;;;;;;;;;;;;;
2009;;;;;;;;;;;;;
2010;;;;;;;;;;;;;
2011;;;;;;;;;;;;;
2012;;;;;;;;;;;;;
2013;;;;;;;;;;;;;
2014;;;;;;;;;;;;;
2015;;;;;;;;;;;;;
2016;;;;;;;;;;;;;
2017;;;;;;;;;;;;;
2018;;;;;;;;;;;;;
2019;;;;;;;;;;;;;
2020;;;;;;;;;;;;;
2021;;;;;;;;;;;;;
2022;;;;;;;;;;;;;
2023;;;;;;;;;;;;;
2024;;;;;;;;;;;;;
2025;;;;;;;;;;;;;
2026;;;;;;;;;;;;;
2027;;;;;;;;;;;;;
2028;;;;;;;;;;;;;
2029;;;;;;;;;;;;;
2030;;;;;;;;;;;;;
2031;;;;;;;;;;;;;
2032;;;;;;;;;;;;;
2033;;;;;;;;;;;;;
2034;;;;;;;;;;;;;
2035;;;;;;;;;;;;;
2036;;;;;;;;;;;;;
2037;;;;;;;;;;;;;
2038;;;;;;;;;;;;;
2039;;;;;;;;;;;;;
2040;;;;;;;;;;;;;
2041;;;;;;;;;;;;;
2042;;;;;;;;;;;;;
2043;;;;;;;;;;;;;
2044;;;;;;;;;;;;;
2045;;;;;;;;;;;;;
2046;;;;;;;;;;;;;
2047;;;;;;;;;;;;;
2048;;;;;;;;;;;;;
2049;;;;;;;;;;;;;
2050;;;;;;;;;;;;;
2051;;;;;;;;;;;;;
2052;;;;;;;;;;;;;
2053;;;;;;;;;;;;;
2054;;;;;;;;;;;;;
2055;;;;;;;;;;;;;
2056;;;;;;;;;;;;;
2057;;;;;;;;;;;;;
2058;;;;;;;;;;;;;
2059;;;;;;;;;;;;;
2060;;;;;;;;;;;;;
2061;;;;;;;;;;;;;
2062;;;;;;;;;;;;;
2063;;;;;;;;;;;;;
2064;;;;;;;;;;;;;
2065;;;;;;;;;;;;;
2066;;;;;;;;;;;;;
2067;;;;;;;;;;;;;
2068;;;;;;;;;;;;;
2069;;;;;;;;;;;;;
2070;;;;;;;;;;;;;
2071;;;;;;;;;;;;;
2072;;;;;;;;;;;;;
2073;;;;;;;;;;;;;
2074;;;;;;;;;;;;;
2075;;;;;;;;;;;;;
2076;;;;;;;;;;;;;
2077;;;;;;;;;;;;;
2078;;;;;;;;;;;;;
2079;;;;;;;;;;;;;
2080;;;;;;;;;;;;;
2081;;;;;;;;;;;;;
2082;;;;;;;;;;;;;
2083;;;;;;;;;;;;;
2084;;;;;;;;;;;;;
2085;;;;;;;;;;;;;
2086;;;;;;;;;;;;;
2087;;;;;;;;;;;;;
2088;;;;;;;;;;;;;
2089;;;;;;;;;;;;;
2090;;;;;;;;;;;;;
2091;;;;;;;;;;;;;
2092;;;;;;;;;;;;;
2093;;;;;;;;;;;;;
2094;;;;;;;;;;;;;
2095;;;;;;;;;;;;;
2096;;;;;;;;;;;;;
2097;;;;;;;;;;;;;
2098;;;;;;;;;;;;;
2099;;;;;;;;;;;;;
2100;;;;;;;;;;;;;
2101;;;;;;;;;;;;;
2102;;;;;;;;;;;;;
2103;;;;;;;;;;;;;
2104;;;;;;;;;;;;;
2105;;;;;;;;;;;;;
2106;;;;;;;;;;;;;
2107;;;;;;;;;;;;;
2108;;;;;;;;;;;;;
2109;;;;;;;;;;;;;
2110;;;;;;;;;;;;;
2111;;;;;;;;;;;;;
2112;;;;;;;;;;;;;
2113;;;;;;;;;;;;;
2114;;;;;;;;;;;;;
2115;;;;;;;;;;;;;
2116;;;;;;;;;;;;;
2117;;;;;;;;;;;;;
2118;;;;;;;;;;;;;
2119;;;;;;;;;;;;;
2120;;;;;;;;;;;;;
2121;;;;;;;;;;;;;
2122;;;;;;;;;;;;;
2123;;;;;;;;;;;;;
2124;;;;;;;;;;;;;
2125;;;;;;;;;;;;;
2126;;;;;;;;;;;;;
2127;;;;;;;;;;;;;
2128;;;;;;;;;;;;;
2129;;;;;;;;;;;;;
2130;;;;;;;;;;;;;
2131;;;;;;;;;;;;;
2132;;;;;;;;;;;;;
2133;;;;;;;;;;;;;
2134;;;;;;;;;;;;;
2135;;;;;;;;;;;;;
2136;;;;;;;;;;;;;
2137;;;;;;;;;;;;;
2138;;;;;;;;;;;;;
2139;;;;;;;;;;;;;
2140;;;;;;;;;;;;;
2141;;;;;;;;;;;;;
2142;;;;;;;;;;;;;
2143;;;;;;;;;;;;;
2144;;;;;;;;;;;;;
2145;;;;;;;;;;;;;
2146;;;;;;;;;;;;;
2147;;;;;;;;;;;;;
2148;;;;;;;;;;;;;
2149;;;;;;;;;;;;;
2150;;;;;;;;;;;;;
2151;;;;;;;;;;;;;
2152;;;;;;;;;;;;;
2153;;;;;;;;;;;;;
2154;;;;;;;;;;;;;
2155;;;;;;;;;;;;;
2156;;;;;;;;;;;;;
2157;;;;;;;;;;;;;
2158;;;;;;;;;;;;;
2159;;;;;;;;;;;;;
2160;;;;;;;;;;;;;
2161;;;;;;;;;;;;;
2162;;;;;;;;;;;;;
2163;;;;;;;;;;;;;
2164;;;;;;;;;;;;;
2165;;;;;;;;;;;;;
2166;;;;;;;;;;;;;
2167;;;;;;;;;;;;;
2168;;;;;;;;;;;;;
2169;;;;;;;;;;;;;
2170;;;;;;;;;;;;;
2171;;;;;;;;;;;;;
2172;;;;;;;;;;;;;
2173;;;;;;;;;;;;;
2174;;;;;;;;;;;;;
2175;;;;;;;;;;;;;
2176;;;;;;;;;;;;;
2177;;;;;;;;;;;;;
2178;;;;;;;;;;;;;
2179;;;;;;;;;;;;;
2180;;;;;;;;;;;;;
2181;;;;;;;;;;;;;
2182;;;;;;;;;;;;;
2183;;;;;;;;;;;;;
2184;;;;;;;;;;;;;
2185;;;;;;;;;;;;;
2186;;;;;;;;;;;;;
2187;;;;;;;;;;;;;
2188;;;;;;;;;;;;;
2189;;;;;;;;;;;;;
2190;;;;;;;;;;;;;
2191;;;;;;;;;;;;;
2192;;;;;;;;;;;;;
2193;;;;;;;;;;;;;
2194;;;;;;;;;;;;;
2195;;;;;;;;;;;;;
2196;;;;;;;;;;;;;
2197;;;;;;;;;;;;;
2198;;;;;;;;;;;;;
2199;;;;;;;;;;;;;
2200;;;;;;;;;;;;;
2201;;;;;;;;;;;;;
2202;;;;;;;;;;;;;
2203;;;;;;;;;;;;;
2204;;;;;;;;;;;;;
2205;;;;;;;;;;;;;
2206;;;;;;;;;;;;;
2207;;;;;;;;;;;;;
2208;;;;;;;;;;;;;
2209;;;;;;;;;;;;;
2210;;;;;;;;;;;;;
2211;;;;;;;;;;;;;
2212;;;;;;;;;;;;;
2213;;;;;;;;;;;;;
2214;;;;;;;;;;;;;
2215;;;;;;;;;;;;;
2216;;;;;;;;;;;;;
2217;;;;;;;;;;;;;
2218;;;;;;;;;;;;;
2219;;;;;;;;;;;;;
2220;;;;;;;;;;;;;
2221;;;;;;;;;;;;;
2222;;;;;;;;;;;;;
2223;;;;;;;;;;;;;
2224;;;;;;;;;;;;;
2225;;;;;;;;;;;;;
2226;;;;;;;;;;;;;
2227;;;;;;;;;;;;;
2228;;;;;;;;;;;;;
2229;;;;;;;;;;;;;
2230;;;;;;;;;;;;;
2231;;;;;;;;;;;;;
2232;;;;;;;;;;;;;
2233;;;;;;;;;;;;;
2234;;;;;;;;;;;;;
2235;;;;;;;;;;;;;
2236;;;;;;;;;;;;;
2237;;;;;;;;;;;;;
2238;;;;;;;;;;;;;
2239;;;;;;;;;;;;;
2240;;;;;;;;;;;;;
2241;;;;;;;;;;;;;
2242;;;;;;;;;;;;;
2243;;;;;;;;;;;;;
2244;;;;;;;;;;;;;
2245;;;;;;;;;;;;;
2246;;;;;;;;;;;;;
2247;;;;;;;;;;;;;
2248;;;;;;;;;;;;;
2249;;;;;;;;;;;;;
2250;;;;;;;;;;;;;
2251;;;;;;;;;;;;;
2252;;;;;;;;;;;;;
2253;;;;;;;;;;;;;
2254;;;;;;;;;;;;;
2255;;;;;;;;;;;;;
2256;;;;;;;;;;;;;
2257;;;;;;;;;;;;;
2258;;;;;;;;;;;;;
2259;;;;;;;;;;;;;
2260;;;;;;;;;;;;;
2261;;;;;;;;;;;;;
2262;;;;;;;;;;;;;
2263;;;;;;;;;;;;;
2264;;;;;;;;;;;;;
2265;;;;;;;;;;;;;
2266;;;;;;;;;;;;;
2267;;;;;;;;;;;;;
2268;;;;;;;;;;;;;
2269;;;;;;;;;;;;;
2270;;;;;;;;;;;;;
2271;;;;;;;;;;;;;
2272;;;;;;;;;;;;;
2273;;;;;;;;;;;;;
2274;;;;;;;;;;;;;
2275;;;;;;;;;;;;;
2276;;;;;;;;;;;;;
2277;;;;;;;;;;;;;
2278;;;;;;;;;;;;;
2279;;;;;;;;;;;;;
2280;;;;;;;;;;;;;
2281;;;;;;;;;;;;;
2282;;;;;;;;;;;;;
2283;;;;;;;;;;;;;
2284;;;;;;;;;;;;;
2285;;;;;;;;;;;;;
2286;;;;;;;;;;;;;
2287;;;;;;;;;;;;;
2288;;;;;;;;;;;;;
2289;;;;;;;;;;;;;
2290;;;;;;;;;;;;;
2291;;;;;;;;;;;;;
2292;;;;;;;;;;;;;
2293;;;;;;;;;;;;;
2294;;;;;;;;;;;;;
2295;;;;;;;;;;;;;
2296;;;;;;;;;;;;;
2297;;;;;;;;;;;;;
2298;;;;;;;;;;;;;
2299;;;;;;;;;;;;;
2300;;;;;;;;;;;;;
2301;;;;;;;;;;;;;
2302;;;;;;;;;;;;;
2303;;;;;;;;;;;;;
2304;;;;;;;;;;;;;
2305;;;;;;;;;;;;;
2306;;;;;;;;;;;;;
2307;;;;;;;;;;;;;
2308;;;;;;;;;;;;;
2309;;;;;;;;;;;;;
2310;;;;;;;;;;;;;
2311;;;;;;;;;;;;;
2312;;;;;;;;;;;;;
2313;;;;;;;;;;;;;
2314;;;;;;;;;;;;;
2315;;;;;;;;;;;;;
2316;;;;;;;;;;;;;
2317;;;;;;;;;;;;;
2318;;;;;;;;;;;;;
2319;;;;;;;;;;;;;
2320;;;;;;;;;;;;;
2321;;;;;;;;;;;;;
2322;;;;;;;;;;;;;
2323;;;;;;;;;;;;;
2324;;;;;;;;;;;;;
2325;;;;;;;;;;;;;
2326;;;;;;;;;;;;;
2327;;;;;;;;;;;;;
2328;;;;;;;;;;;;;
2329;;;;;;;;;;;;;
2330;;;;;;;;;;;;;
2331;;;;;;;;;;;;;
2332;;;;;;;;;;;;;
2333;;;;;;;;;;;;;
2334;;;;;;;;;;;;;
2335;;;;;;;;;;;;;
2336;;;;;;;;;;;;;
2337;;;;;;;;;;;;;
2338;;;;;;;;;;;;;
2339;;;;;;;;;;;;;
2340;;;;;;;;;;;;;
2341;;;;;;;;;;;;;
2342;;;;;;;;;;;;;
2343;;;;;;;;;;;;;
2344;;;;;;;;;;;;;
2345;;;;;;;;;;;;;
2346;;;;;;;;;;;;;
2347;;;;;;;;;;;;;
2348;;;;;;;;;;;;;
2349;;;;;;;;;;;;;
2350;;;;;;;;;;;;;
2351;;;;;;;;;;;;;
2352;;;;;;;;;;;;;
2353;;;;;;;;;;;;;
2354;;;;;;;;;;;;;
2355;;;;;;;;;;;;;
2356;;;;;;;;;;;;;
2357;;;;;;;;;;;;;
2358;;;;;;;;;;;;;
2359;;;;;;;;;;;;;
2360;;;;;;;;;;;;;
2361;;;;;;;;;;;;;
2362;;;;;;;;;;;;;
2363;;;;;;;;;;;;;
2364;;;;;;;;;;;;;
2365;;;;;;;;;;;;;
2366;;;;;;;;;;;;;
2367;;;;;;;;;;;;;
2368;;;;;;;;;;;;;
2369;;;;;;;;;;;;;
2370;;;;;;;;;;;;;
2371;;;;;;;;;;;;;
2372;;;;;;;;;;;;;
2373;;;;;;;;;;;;;
2374;;;;;;;;;;;;;
2375;;;;;;;;;;;;;
2376;;;;;;;;;;;;;
2377;;;;;;;;;;;;;
2378;;;;;;;;;;;;;
2379;;;;;;;;;;;;;
2380;;;;;;;;;;;;;
2381;;;;;;;;;;;;;
2382;;;;;;;;;;;;;
2383;;;;;;;;;;;;;
2384;;;;;;;;;;;;;
2385;;;;;;;;;;;;;
2386;;;;;;;;;;;;;
2387;;;;;;;;;;;;;
2388;;;;;;;;;;;;;
2389;;;;;;;;;;;;;
2390;;;;;;;;;;;;;
2391;;;;;;;;;;;;;
2392;;;;;;;;;;;;;
2393;;;;;;;;;;;;;
2394;;;;;;;;;;;;;
2395;;;;;;;;;;;;;
2396;;;;;;;;;;;;;
2397;;;;;;;;;;;;;
2398;;;;;;;;;;;;;
2399;;;;;;;;;;;;;
2400;;;;;;;;;;;;;
2401;;;;;;;;;;;;;
2402;;;;;;;;;;;;;
2403;;;;;;;;;;;;;
2404;;;;;;;;;;;;;
2405;;;;;;;;;;;;;
2406;;;;;;;;;;;;;
2407;;;;;;;;;;;;;
2408;;;;;;;;;;;;;
2409;;;;;;;;;;;;;
2410;;;;;;;;;;;;;
2411;;;;;;;;;;;;;
2412;;;;;;;;;;;;;
2413;;;;;;;;;;;;;
2414;;;;;;;;;;;;;
2415;;;;;;;;;;;;;
2416;;;;;;;;;;;;;
2417;;;;;;;;;;;;;
2418;;;;;;;;;;;;;
2419;;;;;;;;;;;;;
2420;;;;;;;;;;;;;
2421;;;;;;;;;;;;;
2422;;;;;;;;;;;;;
2423;;;;;;;;;;;;;
2424;;;;;;;;;;;;;
2425;;;;;;;;;;;;;
2426;;;;;;;;;;;;;
2427;;;;;;;;;;;;;
2428;;;;;;;;;;;;;
2429;;;;;;;;;;;;;
2430;;;;;;;;;;;;;
2431;;;;;;;;;;;;;
2432;;;;;;;;;;;;;
2433;;;;;;;;;;;;;
2434;;;;;;;;;;;;;
2435;;;;;;;;;;;;;
2436;;;;;;;;;;;;;
2437;;;;;;;;;;;;;
2438;;;;;;;;;;;;;
2439;;;;;;;;;;;;;
2440;;;;;;;;;;;;;
2441;;;;;;;;;;;;;
2442;;;;;;;;;;;;;
2443;;;;;;;;;;;;;
2444;;;;;;;;;;;;;
2445;;;;;;;;;;;;;
2446;;;;;;;;;;;;;
2447;;;;;;;;;;;;;
2448;;;;;;;;;;;;;
2449;;;;;;;;;;;;;
2450;;;;;;;;;;;;;
2451;;;;;;;;;;;;;
2452;;;;;;;;;;;;;
2453;;;;;;;;;;;;;
2454;;;;;;;;;;;;;
2455;;;;;;;;;;;;;
2456;;;;;;;;;;;;;
2457;;;;;;;;;;;;;
2458;;;;;;;;;;;;;
2459;;;;;;;;;;;;;
2460;;;;;;;;;;;;;
2461;;;;;;;;;;;;;
2462;;;;;;;;;;;;;
2463;;;;;;;;;;;;;
2464;;;;;;;;;;;;;
2465;;;;;;;;;;;;;
2466;;;;;;;;;;;;;
2467;;;;;;;;;;;;;
2468;;;;;;;;;;;;;
2469;;;;;;;;;;;;;
2470;;;;;;;;;;;;;
2471;;;;;;;;;;;;;
2472;;;;;;;;;;;;;
2473;;;;;;;;;;;;;
2474;;;;;;;;;;;;;
2475;;;;;;;;;;;;;
2476;;;;;;;;;;;;;
2477;;;;;;;;;;;;;
2478;;;;;;;;;;;;;
2479;;;;;;;;;;;;;
2480;;;;;;;;;;;;;
2481;;;;;;;;;;;;;
2482;;;;;;;;;;;;;
2483;;;;;;;;;;;;;
2484;;;;;;;;;;;;;
2485;;;;;;;;;;;;;
2486;;;;;;;;;;;;;
2487;;;;;;;;;;;;;
2488;;;;;;;;;;;;;
2489;;;;;;;;;;;;;
2490;;;;;;;;;;;;;
2491;;;;;;;;;;;;;
2492;;;;;;;;;;;;;
2493;;;;;;;;;;;;;
2494;;;;;;;;;;;;;
2495;;;;;;;;;;;;;
