
Index;Column 2 (V);Column 3 (V);Column 4 (V);Column 5 (V);Column 6 (V/s);Column 7 (V);Time (s);Potential applied (V);WE(1).Current (A);WE(1).Potential (V);Scan;Column 13 (RPM);ω (rad/s)
1;0;0.01;-1;-0.01;0.01;-0.00244;9532.54211093265;-0.0146484375;1.04034423828125E-06;-0.01435546875;3;1000;104.71975511966
2;;;;;;;9532.78625193203;-0.01708984375;9.2864990234375E-07;-0.016796875;3;;
3;;;;;;;9533.03039293141;-0.01953125;8.3770751953125E-07;-0.0192474365234375;3;;
4;;;;;;;9533.27453393079;-0.02197265625;7.354736328125E-07;-0.0216949462890625;3;;
5;;;;;;;9533.51867493018;-0.0244140625;6.390380859375E-07;-0.0241851806640625;3;;
6;;;;;;;9533.76281592956;-0.02685546875;5.8135986328125E-07;-0.0265594482421875;3;;
7;;;;;;;9534.00695692895;-0.029296875;4.8797607421875E-07;-0.02901611328125;3;;
8;;;;;;;9534.25109792833;-0.03173828125;4.156494140625E-07;-0.0314544677734375;3;;
9;;;;;;;9534.49523892771;-0.0341796875;3.3355712890625E-07;-0.0338714599609375;3;;
10;;;;;;;9534.7393799271;-0.03662109375;2.3712158203125E-07;-0.0362640380859375;3;;
11;;;;;;;9534.98352092648;-0.0390625;1.5594482421875E-07;-0.038812255859375;3;;
12;;;;;;;9535.22766192586;-0.04150390625;1.055908203125E-07;-0.0411651611328125;3;;
13;;;;;;;9535.47180292525;-0.0439453125;2.5634765625E-08;-0.0436065673828125;3;;
14;;;;;;;9535.71594392463;-0.04638671875;-5.2490234375E-08;-0.0462188720703125;3;;
15;;;;;;;9535.96008492402;-0.048828125;-1.043701171875E-07;-0.0485198974609375;3;;
16;;;;;;;9536.2042259234;-0.05126953125;-1.885986328125E-07;-0.051116943359375;3;;
17;;;;;;;9536.44836692278;-0.0537109375;-2.374267578125E-07;-0.053253173828125;3;;
18;;;;;;;9536.69250792217;-0.05615234375;-3.2440185546875E-07;-0.055908203125;3;;
19;;;;;;;9536.93664892155;-0.05859375;-4.13818359375E-07;-0.058349609375;3;;
20;;;;;;;9537.18078992093;-0.06103515625;-4.730224609375E-07;-0.06072998046875;3;;
21;;;;;;;9537.42493092032;-0.0634765625;-5.413818359375E-07;-0.063140869140625;3;;
22;;;;;;;9537.6690719197;-0.06591796875;-6.2347412109375E-07;-0.065643310546875;3;;
23;;;;;;;9537.91321291908;-0.068359375;-7.1441650390625E-07;-0.06805419921875;3;;
24;;;;;;;9538.15735391847;-0.07080078125;-8.2611083984375E-07;-0.070465087890625;3;;
25;;;;;;;9538.40149491785;-0.0732421875;-9.222412109375E-07;-0.0728759765625;3;;
26;;;;;;;9538.64563591724;-0.07568359375;-1.00128173828125E-06;-0.075286865234375;3;;
27;;;;;;;9538.88977691662;-0.078125;-1.09954833984375E-06;-0.07763671875;3;;
28;;;;;;;9539.133917916;-0.08056640625;-1.21124267578125E-06;-0.080322265625;3;;
29;;;;;;;9539.37805891538;-0.0830078125;-1.32080078125E-06;-0.082672119140625;3;;
30;;;;;;;9539.62219991477;-0.08544921875;-1.44378662109375E-06;-0.084991455078125;3;;
31;;;;;;;9539.86634091415;-0.087890625;-1.56982421875E-06;-0.087646484375;3;;
32;;;;;;;9540.11048191354;-0.09033203125;-1.67938232421875E-06;-0.089996337890625;3;;
33;;;;;;;9540.35462291292;-0.0927734375;-1.83349609375E-06;-0.09228515625;3;;
34;;;;;;;9540.5987639123;-0.09521484375;-1.971435546875E-06;-0.094696044921875;3;;
35;;;;;;;9540.84290491169;-0.09765625;-2.13287353515625E-06;-0.097015380859375;3;;
36;;;;;;;9541.08704591107;-0.10009765625;-2.29949951171875E-06;-0.09954833984375;3;;
37;;;;;;;9541.33118691045;-0.1025390625;-2.4945068359375E-06;-0.1019287109375;3;;
38;;;;;;;9541.57532790984;-0.10498046875;-2.6849365234375E-06;-0.1043701171875;3;;
39;;;;;;;9541.81946890922;-0.107421875;-2.89581298828125E-06;-0.10675048828125;3;;
40;;;;;;;9542.06360990861;-0.10986328125;-3.10791015625E-06;-0.109130859375;3;;
41;;;;;;;9542.30775090799;-0.1123046875;-3.33038330078125E-06;-0.1119384765625;3;;
42;;;;;;;9542.55189190737;-0.11474609375;-3.5833740234375E-06;-0.114349365234375;3;;
43;;;;;;;9542.79603290676;-0.1171875;-3.826904296875E-06;-0.1168212890625;3;;
44;;;;;;;9543.04017390614;-0.11962890625;-4.11376953125E-06;-0.119171142578125;3;;
45;;;;;;;9543.28431490552;-0.1220703125;-4.3975830078125E-06;-0.12164306640625;3;;
46;;;;;;;9543.52845590491;-0.12451171875;-4.7271728515625E-06;-0.124114990234375;3;;
47;;;;;;;9543.77259690429;-0.126953125;-5.0537109375E-06;-0.1265869140625;3;;
48;;;;;;;9544.01673790367;-0.12939453125;-5.4290771484375E-06;-0.128997802734375;3;;
49;;;;;;;9544.26087890306;-0.1318359375;-5.828857421875E-06;-0.13134765625;3;;
50;;;;;;;9544.50501990244;-0.13427734375;-6.219482421875E-06;-0.1337890625;3;;
51;;;;;;;9544.74916090183;-0.13671875;-6.62841796875E-06;-0.136322021484375;3;;
52;;;;;;;9544.99330190121;-0.13916015625;-7.1075439453125E-06;-0.13873291015625;3;;
53;;;;;;;9545.23744290059;-0.1416015625;-7.6019287109375E-06;-0.141082763671875;3;;
54;;;;;;;9545.48158389997;-0.14404296875;-8.0902099609375E-06;-0.1435546875;3;;
55;;;;;;;9545.72572489936;-0.146484375;-8.6761474609375E-06;-0.145965576171875;3;;
56;;;;;;;9545.96986589874;-0.14892578125;-9.2498779296875E-06;-0.148406982421875;3;;
57;;;;;;;9546.21400689813;-0.1513671875;-9.881591796875E-06;-0.15087890625;3;;
58;;;;;;;9546.45814789751;-0.15380859375;-1.0552978515625E-05;-0.153289794921875;3;;
59;;;;;;;9546.70228889689;-0.15625;-1.12884521484375E-05;-0.155670166015625;3;;
60;;;;;;;9546.94642989628;-0.15869140625;-1.20391845703125E-05;-0.1580810546875;3;;
61;;;;;;;9547.19057089566;-0.1611328125;-1.282958984375E-05;-0.160552978515625;3;;
62;;;;;;;9547.43471189504;-0.16357421875;-1.37115478515625E-05;-0.16302490234375;3;;
63;;;;;;;9547.67885289443;-0.166015625;-1.461181640625E-05;-0.165435791015625;3;;
64;;;;;;;9547.92299389381;-0.16845703125;-1.55853271484375E-05;-0.167816162109375;3;;
65;;;;;;;9548.1671348932;-0.1708984375;-1.65985107421875E-05;-0.170318603515625;3;;
66;;;;;;;9548.41127589258;-0.17333984375;-1.76483154296875E-05;-0.17266845703125;3;;
67;;;;;;;9548.65541689196;-0.17578125;-1.88201904296875E-05;-0.175140380859375;3;;
68;;;;;;;9548.89955789135;-0.17822265625;-2.00531005859375E-05;-0.177581787109375;3;;
69;;;;;;;9549.14369889073;-0.1806640625;-2.13104248046875E-05;-0.17999267578125;3;;
70;;;;;;;9549.38783989011;-0.18310546875;-2.27142333984375E-05;-0.182373046875;3;;
71;;;;;;;9549.6319808895;-0.185546875;-2.41546630859375E-05;-0.184814453125;3;;
72;;;;;;;9549.87612188888;-0.18798828125;-2.574462890625E-05;-0.187225341796875;3;;
73;;;;;;;9550.12026288826;-0.1904296875;-2.74383544921875E-05;-0.189666748046875;3;;
74;;;;;;;9550.36440388765;-0.19287109375;-2.918701171875E-05;-0.19207763671875;3;;
75;;;;;;;9550.60854488703;-0.1953125;-3.11126708984375E-05;-0.1944580078125;3;;
76;;;;;;;9550.85268588642;-0.19775390625;-3.306884765625E-05;-0.197235107421875;3;;
77;;;;;;;9551.0968268858;-0.2001953125;-3.519287109375E-05;-0.19964599609375;3;;
78;;;;;;;9551.34096788518;-0.20263671875;-3.7420654296875E-05;-0.202056884765625;3;;
79;;;;;;;9551.58510888457;-0.205078125;-3.9764404296875E-05;-0.204498291015625;3;;
80;;;;;;;9551.82924988395;-0.20751953125;-4.22393798828125E-05;-0.206939697265625;3;;
81;;;;;;;9552.07339088333;-0.2099609375;-4.49066162109375E-05;-0.209381103515625;3;;
82;;;;;;;9552.31753188272;-0.21240234375;-4.7705078125E-05;-0.211822509765625;3;;
83;;;;;;;9552.5616728821;-0.21484375;-5.06591796875E-05;-0.214263916015625;3;;
84;;;;;;;9552.80581388148;-0.21728515625;-5.389404296875E-05;-0.216644287109375;3;;
85;;;;;;;9553.04995488087;-0.2197265625;-5.7281494140625E-05;-0.219146728515625;3;;
86;;;;;;;9553.29409588025;-0.22216796875;-6.0943603515625E-05;-0.221588134765625;3;;
87;;;;;;;9553.53823687963;-0.224609375;-6.4788818359375E-05;-0.224029541015625;3;;
88;;;;;;;9553.78237787902;-0.22705078125;-6.890869140625E-05;-0.22637939453125;3;;
89;;;;;;;9554.0265188784;-0.2294921875;-7.330322265625E-05;-0.22882080078125;3;;
90;;;;;;;9554.27065987779;-0.23193359375;-7.7911376953125E-05;-0.2313232421875;3;;
91;;;;;;;9554.51480087717;-0.234375;-8.2763671875E-05;-0.233642578125;3;;
92;;;;;;;9554.75894187655;-0.23681640625;-8.795166015625E-05;-0.236175537109375;3;;
93;;;;;;;9555.00308287594;-0.2392578125;-9.3353271484375E-05;-0.23858642578125;3;;
94;;;;;;;9555.24722387532;-0.24169921875;-9.906005859375E-05;-0.24102783203125;3;;
95;;;;;;;9555.4913648747;-0.244140625;-0.000105072021484375;-0.24346923828125;3;;
96;;;;;;;9555.73550587409;-0.24658203125;-0.000111480712890625;-0.245880126953125;3;;
97;;;;;;;9555.97964687347;-0.2490234375;-0.000118194580078125;-0.248321533203125;3;;
98;;;;;;;9556.22378787285;-0.25146484375;-0.00012554931640625;-0.250762939453125;3;;
99;;;;;;;9556.46792887224;-0.25390625;-0.000133209228515625;-0.253082275390625;3;;
100;;;;;;;9556.71206987162;-0.25634765625;-0.000141326904296875;-0.255645751953125;3;;
101;;;;;;;9556.95621087101;-0.2587890625;-0.000149932861328125;-0.258087158203125;3;;
102;;;;;;;9557.20035187039;-0.26123046875;-0.00015899658203125;-0.260406494140625;3;;
103;;;;;;;9557.44449286977;-0.263671875;-0.000168487548828125;-0.262939453125;3;;
104;;;;;;;9557.68863386916;-0.26611328125;-0.000178497314453125;-0.265289306640625;3;;
105;;;;;;;9557.93277486854;-0.2685546875;-0.000188873291015625;-0.267730712890625;3;;
106;;;;;;;9558.17691586792;-0.27099609375;-0.000199676513671875;-0.2701416015625;3;;
107;;;;;;;9558.42105686731;-0.2734375;-0.000210968017578125;-0.272613525390625;3;;
108;;;;;;;9558.66519786669;-0.27587890625;-0.0002225341796875;-0.27496337890625;3;;
109;;;;;;;9558.90933886607;-0.2783203125;-0.000234649658203125;-0.27740478515625;3;;
110;;;;;;;9559.15347986546;-0.28076171875;-0.000247283935546875;-0.279815673828125;3;;
111;;;;;;;9559.39762086484;-0.283203125;-0.00026043701171875;-0.282196044921875;3;;
112;;;;;;;9559.64176186422;-0.28564453125;-0.000274169921875;-0.28466796875;3;;
113;;;;;;;9559.88590286361;-0.2880859375;-0.00028839111328125;-0.28704833984375;3;;
114;;;;;;;9560.13004386299;-0.29052734375;-0.000303192138671875;-0.289520263671875;3;;
115;;;;;;;9560.37418486238;-0.29296875;-0.000318603515625;-0.292236328125;3;;
116;;;;;;;9560.61832586176;-0.29541015625;-0.0003343505859375;-0.294708251953125;3;;
117;;;;;;;9560.86246686114;-0.2978515625;-0.00035052490234375;-0.297119140625;3;;
118;;;;;;;9561.10660786053;-0.30029296875;-0.000367034912109375;-0.29949951171875;3;;
119;;;;;;;9561.35074885991;-0.302734375;-0.0003837890625;-0.302001953125;3;;
120;;;;;;;9561.59488985929;-0.30517578125;-0.0004007568359375;-0.304473876953125;3;;
121;;;;;;;9561.83903085868;-0.3076171875;-0.00041790771484375;-0.306793212890625;3;;
122;;;;;;;9562.08317185806;-0.31005859375;-0.00043524169921875;-0.309356689453125;3;;
123;;;;;;;9562.32731285744;-0.3125;-0.000452850341796875;-0.311767578125;3;;
124;;;;;;;9562.57145385683;-0.31494140625;-0.00047064208984375;-0.314178466796875;3;;
125;;;;;;;9562.81559485621;-0.3173828125;-0.000488494873046875;-0.316619873046875;3;;
126;;;;;;;9563.0597358556;-0.31982421875;-0.00050628662109375;-0.319122314453125;3;;
127;;;;;;;9563.30387685498;-0.322265625;-0.0005242919921875;-0.321533203125;3;;
128;;;;;;;9563.54801785436;-0.32470703125;-0.0005426025390625;-0.32403564453125;3;;
129;;;;;;;9563.79215885375;-0.3271484375;-0.00056121826171875;-0.326385498046875;3;;
130;;;;;;;9564.03629985313;-0.32958984375;-0.00057952880859375;-0.328887939453125;3;;
131;;;;;;;9564.28044085251;-0.33203125;-0.0005975341796875;-0.331268310546875;3;;
132;;;;;;;9564.5245818519;-0.33447265625;-0.00061553955078125;-0.33367919921875;3;;
133;;;;;;;9564.76872285128;-0.3369140625;-0.0006329345703125;-0.336090087890625;3;;
134;;;;;;;9565.01286385066;-0.33935546875;-0.0006500244140625;-0.338531494140625;3;;
135;;;;;;;9565.25700485005;-0.341796875;-0.00066680908203125;-0.340972900390625;3;;
136;;;;;;;9565.50114584943;-0.34423828125;-0.0006829833984375;-0.343414306640625;3;;
137;;;;;;;9565.74528684881;-0.3466796875;-0.00069854736328125;-0.345855712890625;3;;
138;;;;;;;9565.9894278482;-0.34912109375;-0.00071380615234375;-0.34832763671875;3;;
139;;;;;;;9566.23356884758;-0.3515625;-0.00072845458984375;-0.350799560546875;3;;
140;;;;;;;9566.47770984697;-0.35400390625;-0.00074249267578125;-0.353179931640625;3;;
141;;;;;;;9566.72185084635;-0.3564453125;-0.0007562255859375;-0.355621337890625;3;;
142;;;;;;;9566.96599184573;-0.35888671875;-0.0007696533203125;-0.3580322265625;3;;
143;;;;;;;9567.21013284512;-0.361328125;-0.00078216552734375;-0.3604736328125;3;;
144;;;;;;;9567.4542738445;-0.36376953125;-0.0007940673828125;-0.3629150390625;3;;
145;;;;;;;9567.69841484388;-0.3662109375;-0.00080535888671875;-0.365386962890625;3;;
146;;;;;;;9567.94255584327;-0.36865234375;-0.00081573486328125;-0.367828369140625;3;;
147;;;;;;;9568.18669684265;-0.37109375;-0.00082550048828125;-0.37030029296875;3;;
148;;;;;;;9568.43083784203;-0.37353515625;-0.000833740234375;-0.372650146484375;3;;
149;;;;;;;9568.67497884142;-0.3759765625;-0.0008416748046875;-0.3751220703125;3;;
150;;;;;;;9568.9191198408;-0.37841796875;-0.00084808349609375;-0.377532958984375;3;;
151;;;;;;;9569.16326084019;-0.380859375;-0.00085418701171875;-0.37994384765625;3;;
152;;;;;;;9569.40740183957;-0.38330078125;-0.000859375;-0.38238525390625;3;;
153;;;;;;;9569.65154283895;-0.3857421875;-0.0008642578125;-0.3848876953125;3;;
154;;;;;;;9569.89568383834;-0.38818359375;-0.0008685302734375;-0.387298583984375;3;;
155;;;;;;;9570.13982483772;-0.390625;-0.0008721923828125;-0.389678955078125;3;;
156;;;;;;;9570.3839658371;-0.39306640625;-0.0008758544921875;-0.39215087890625;3;;
157;;;;;;;9570.62810683649;-0.3955078125;-0.00087890625;-0.394622802734375;3;;
158;;;;;;;9570.87224783587;-0.39794921875;-0.00088165283203125;-0.39703369140625;3;;
159;;;;;;;9571.11638883525;-0.400390625;-0.00088470458984375;-0.399444580078125;3;;
160;;;;;;;9571.36052983464;-0.40283203125;-0.00088714599609375;-0.40191650390625;3;;
161;;;;;;;9571.60467083402;-0.4052734375;-0.00088958740234375;-0.40435791015625;3;;
162;;;;;;;9571.8488118334;-0.40771484375;-0.00089141845703125;-0.40679931640625;3;;
163;;;;;;;9572.09295283279;-0.41015625;-0.00089324951171875;-0.40924072265625;3;;
164;;;;;;;9572.33709383217;-0.41259765625;-0.00089508056640625;-0.411712646484375;3;;
165;;;;;;;9572.58123483156;-0.4150390625;-0.00089691162109375;-0.414093017578125;3;;
166;;;;;;;9572.82537583094;-0.41748046875;-0.00089874267578125;-0.41656494140625;3;;
167;;;;;;;9573.06951683032;-0.419921875;-0.00090087890625;-0.418975830078125;3;;
168;;;;;;;9573.31365782971;-0.42236328125;-0.0009027099609375;-0.421417236328125;3;;
169;;;;;;;9573.55779882909;-0.4248046875;-0.00090484619140625;-0.42388916015625;3;;
170;;;;;;;9573.80193982847;-0.42724609375;-0.00090728759765625;-0.426300048828125;3;;
171;;;;;;;9574.04608082786;-0.4296875;-0.00090972900390625;-0.4287109375;3;;
172;;;;;;;9574.29022182724;-0.43212890625;-0.00091217041015625;-0.43115234375;3;;
173;;;;;;;9574.53436282662;-0.4345703125;-0.00091461181640625;-0.43359375;3;;
174;;;;;;;9574.77850382601;-0.43701171875;-0.00091766357421875;-0.43603515625;3;;
175;;;;;;;9575.02264482539;-0.439453125;-0.00092041015625;-0.43841552734375;3;;
176;;;;;;;9575.26678582478;-0.44189453125;-0.00092254638671875;-0.440887451171875;3;;
177;;;;;;;9575.51092682416;-0.4443359375;-0.00092437744140625;-0.443328857421875;3;;
178;;;;;;;9575.75506782354;-0.44677734375;-0.00092620849609375;-0.445831298828125;3;;
179;;;;;;;9575.99920882293;-0.44921875;-0.00092803955078125;-0.4482421875;3;;
180;;;;;;;9576.24334982231;-0.45166015625;-0.00092987060546875;-0.450653076171875;3;;
181;;;;;;;9576.48749082169;-0.4541015625;-0.000931396484375;-0.453094482421875;3;;
182;;;;;;;9576.73163182108;-0.45654296875;-0.00093353271484375;-0.45550537109375;3;;
183;;;;;;;9576.97577282046;-0.458984375;-0.00093536376953125;-0.457977294921875;3;;
184;;;;;;;9577.21991381984;-0.46142578125;-0.00093658447265625;-0.46044921875;3;;
185;;;;;;;9577.46405481923;-0.4638671875;-0.00093841552734375;-0.46282958984375;3;;
186;;;;;;;9577.70819581861;-0.46630859375;-0.00094146728515625;-0.46527099609375;3;;
187;;;;;;;9577.95233681799;-0.46875;-0.0009442138671875;-0.467742919921875;3;;
188;;;;;;;9578.19647781738;-0.47119140625;-0.00094635009765625;-0.47015380859375;3;;
189;;;;;;;9578.44061881676;-0.4736328125;-0.00094818115234375;-0.47259521484375;3;;
190;;;;;;;9578.68475981615;-0.47607421875;-0.00094970703125;-0.475006103515625;3;;
191;;;;;;;9578.92890081553;-0.478515625;-0.00095123291015625;-0.47747802734375;3;;
192;;;;;;;9579.17304181491;-0.48095703125;-0.00095184326171875;-0.479949951171875;3;;
193;;;;;;;9579.4171828143;-0.4833984375;-0.0009539794921875;-0.482330322265625;3;;
194;;;;;;;9579.66132381368;-0.48583984375;-0.00095550537109375;-0.484771728515625;3;;
195;;;;;;;9579.90546481306;-0.48828125;-0.00095703125;-0.48724365234375;3;;
196;;;;;;;9580.14960581245;-0.49072265625;-0.00095733642578125;-0.48968505859375;3;;
197;;;;;;;9580.39374681183;-0.4931640625;-0.00095916748046875;-0.4920654296875;3;;
198;;;;;;;9580.63788781122;-0.49560546875;-0.00096099853515625;-0.49456787109375;3;;
199;;;;;;;9580.8820288106;-0.498046875;-0.000963134765625;-0.496978759765625;3;;
200;;;;;;;9581.12616980998;-0.50048828125;-0.00096435546875;-0.499359130859375;3;;
201;;;;;;;9581.37031080937;-0.5029296875;-0.00096588134765625;-0.501861572265625;3;;
202;;;;;;;9581.61445180875;-0.50537109375;-0.00096710205078125;-0.504241943359375;3;;
203;;;;;;;9581.85859280813;-0.5078125;-0.00096893310546875;-0.506744384765625;3;;
204;;;;;;;9582.10273380752;-0.51025390625;-0.00096954345703125;-0.509124755859375;3;;
205;;;;;;;9582.3468748069;-0.5126953125;-0.0009698486328125;-0.511566162109375;3;;
206;;;;;;;9582.59101580628;-0.51513671875;-0.000970458984375;-0.5140380859375;3;;
207;;;;;;;9582.83515680567;-0.517578125;-0.0009716796875;-0.516448974609375;3;;
208;;;;;;;9583.07929780505;-0.52001953125;-0.0009735107421875;-0.5189208984375;3;;
209;;;;;;;9583.32343880443;-0.5224609375;-0.00097503662109375;-0.521331787109375;3;;
210;;;;;;;9583.56757980382;-0.52490234375;-0.00097503662109375;-0.5238037109375;3;;
211;;;;;;;9583.8117208032;-0.52734375;-0.0009759521484375;-0.5262451171875;3;;
212;;;;;;;9584.05586180258;-0.52978515625;-0.00097747802734375;-0.528717041015625;3;;
213;;;;;;;9584.30000280197;-0.5322265625;-0.00097900390625;-0.531097412109375;3;;
214;;;;;;;9584.54414380135;-0.53466796875;-0.00098052978515625;-0.533477783203125;3;;
215;;;;;;;9584.78828480074;-0.537109375;-0.00098175048828125;-0.535980224609375;3;;
216;;;;;;;9585.03242580012;-0.53955078125;-0.00098297119140625;-0.53839111328125;3;;
217;;;;;;;9585.2765667995;-0.5419921875;-0.00098358154296875;-0.54083251953125;3;;
218;;;;;;;9585.52070779889;-0.54443359375;-0.00098419189453125;-0.543243408203125;3;;
219;;;;;;;9585.76484879827;-0.546875;-0.0009844970703125;-0.54571533203125;3;;
220;;;;;;;9586.00898979765;-0.54931640625;-0.00098602294921875;-0.548126220703125;3;;
221;;;;;;;9586.25313079704;-0.5517578125;-0.00098541259765625;-0.55059814453125;3;;
222;;;;;;;9586.49727179642;-0.55419921875;-0.00098541259765625;-0.553009033203125;3;;
223;;;;;;;9586.74141279581;-0.556640625;-0.000986328125;-0.55548095703125;3;;
224;;;;;;;9586.98555379519;-0.55908203125;-0.000986328125;-0.55792236328125;3;;
225;;;;;;;9587.22969479457;-0.5615234375;-0.00098724365234375;-0.56036376953125;3;;
226;;;;;;;9587.47383579396;-0.56396484375;-0.00098846435546875;-0.562774658203125;3;;
227;;;;;;;9587.71797679334;-0.56640625;-0.0009893798828125;-0.565185546875;3;;
228;;;;;;;9587.96211779272;-0.56884765625;-0.0009906005859375;-0.567657470703125;3;;
229;;;;;;;9588.20625879211;-0.5712890625;-0.00099273681640625;-0.570098876953125;3;;
230;;;;;;;9588.45039979149;-0.57373046875;-0.00099273681640625;-0.572479248046875;3;;
231;;;;;;;9588.69454079087;-0.576171875;-0.0009942626953125;-0.574951171875;3;;
232;;;;;;;9588.93868179026;-0.57861328125;-0.00099456787109375;-0.577392578125;3;;
233;;;;;;;9589.18282278964;-0.5810546875;-0.00099365234375;-0.579833984375;3;;
234;;;;;;;9589.42696378902;-0.58349609375;-0.00099334716796875;-0.582244873046875;3;;
235;;;;;;;9589.67110478841;-0.5859375;-0.00099517822265625;-0.584716796875;3;;
236;;;;;;;9589.91524578779;-0.58837890625;-0.00099365234375;-0.587158203125;3;;
237;;;;;;;9590.15938678717;-0.5908203125;-0.00099456787109375;-0.589569091796875;3;;
238;;;;;;;9590.40352778656;-0.59326171875;-0.0009942626953125;-0.592010498046875;3;;
239;;;;;;;9590.64766878594;-0.595703125;-0.0009942626953125;-0.594451904296875;3;;
240;;;;;;;9590.89180978533;-0.59814453125;-0.000994873046875;-0.59686279296875;3;;
241;;;;;;;9591.13595078471;-0.6005859375;-0.00099639892578125;-0.59930419921875;3;;
242;;;;;;;9591.38009178409;-0.60302734375;-0.00099639892578125;-0.601715087890625;3;;
243;;;;;;;9591.62423278348;-0.60546875;-0.00099639892578125;-0.604156494140625;3;;
244;;;;;;;9591.86837378286;-0.60791015625;-0.0009979248046875;-0.60662841796875;3;;
245;;;;;;;9592.11251478224;-0.6103515625;-0.0009991455078125;-0.60906982421875;3;;
246;;;;;;;9592.35665578163;-0.61279296875;-0.00099853515625;-0.61151123046875;3;;
247;;;;;;;9592.60079678101;-0.615234375;-0.000997314453125;-0.613983154296875;3;;
248;;;;;;;9592.8449377804;-0.61767578125;-0.00099700927734375;-0.616363525390625;3;;
249;;;;;;;9593.08907877978;-0.6201171875;-0.0009967041015625;-0.618804931640625;3;;
250;;;;;;;9593.33321977916;-0.62255859375;-0.00099609375;-0.621246337890625;3;;
251;;;;;;;9593.57736077855;-0.625;-0.00099761962890625;-0.623687744140625;3;;
252;;;;;;;9593.82150177793;-0.62744140625;-0.00099639892578125;-0.626068115234375;3;;
253;;;;;;;9594.06564277731;-0.6298828125;-0.00099609375;-0.628631591796875;3;;
254;;;;;;;9594.3097837767;-0.63232421875;-0.00099639892578125;-0.631011962890625;3;;
255;;;;;;;9594.55392477608;-0.634765625;-0.00099700927734375;-0.6334228515625;3;;
256;;;;;;;9594.79806577546;-0.63720703125;-0.00099639892578125;-0.6358642578125;3;;
257;;;;;;;9595.04220677485;-0.6396484375;-0.00099609375;-0.638336181640625;3;;
258;;;;;;;9595.28634777423;-0.64208984375;-0.0009954833984375;-0.6407470703125;3;;
259;;;;;;;9595.53048877361;-0.64453125;-0.0009967041015625;-0.643218994140625;3;;
260;;;;;;;9595.774629773;-0.64697265625;-0.000997314453125;-0.64569091796875;3;;
261;;;;;;;9596.01877077238;-0.6494140625;-0.0009967041015625;-0.648101806640625;3;;
262;;;;;;;9596.26291177177;-0.65185546875;-0.00099639892578125;-0.65057373046875;3;;
263;;;;;;;9596.50705277115;-0.654296875;-0.00099517822265625;-0.652984619140625;3;;
264;;;;;;;9596.75119377053;-0.65673828125;-0.000994873046875;-0.655426025390625;3;;
265;;;;;;;9596.99533476992;-0.6591796875;-0.0009942626953125;-0.65789794921875;3;;
266;;;;;;;9597.2394757693;-0.66162109375;-0.000992431640625;-0.6602783203125;3;;
267;;;;;;;9597.48361676868;-0.6640625;-0.000992431640625;-0.662811279296875;3;;
268;;;;;;;9597.72775776807;-0.66650390625;-0.00099212646484375;-0.665191650390625;3;;
269;;;;;;;9597.97189876745;-0.6689453125;-0.00099151611328125;-0.667633056640625;3;;
270;;;;;;;9598.21603976683;-0.67138671875;-0.0009918212890625;-0.67010498046875;3;;
271;;;;;;;9598.46018076622;-0.673828125;-0.00099151611328125;-0.6724853515625;3;;
272;;;;;;;9598.7043217656;-0.67626953125;-0.000992431640625;-0.674957275390625;3;;
273;;;;;;;9598.94846276499;-0.6787109375;-0.0009918212890625;-0.6773681640625;3;;
274;;;;;;;9599.19260376437;-0.68115234375;-0.00099151611328125;-0.679779052734375;3;;
275;;;;;;;9599.43674476375;-0.68359375;-0.00098968505859375;-0.6822509765625;3;;
276;;;;;;;9599.68088576313;-0.68603515625;-0.00098876953125;-0.684722900390625;3;;
277;;;;;;;9599.92502676252;-0.6884765625;-0.0009881591796875;-0.68719482421875;3;;
278;;;;;;;9600.1691677619;-0.69091796875;-0.000986328125;-0.6895751953125;3;;
279;;;;;;;9600.41330876129;-0.693359375;-0.000985107421875;-0.692047119140625;3;;
280;;;;;;;9600.65744976067;-0.69580078125;-0.00098602294921875;-0.69439697265625;3;;
281;;;;;;;9600.90159076005;-0.6982421875;-0.00098541259765625;-0.69696044921875;3;;
282;;;;;;;9601.14573175944;-0.70068359375;-0.00098419189453125;-0.699371337890625;3;;
283;;;;;;;9601.38987275882;-0.703125;-0.0009832763671875;-0.70184326171875;3;;
284;;;;;;;9601.6340137582;-0.70556640625;-0.00098297119140625;-0.704254150390625;3;;
285;;;;;;;9601.87815475759;-0.7080078125;-0.00098419189453125;-0.706634521484375;3;;
286;;;;;;;9602.12229575697;-0.71044921875;-0.00098419189453125;-0.7091064453125;3;;
287;;;;;;;9602.36643675636;-0.712890625;-0.000982666015625;-0.71160888671875;3;;
288;;;;;;;9602.61057775574;-0.71533203125;-0.00098297119140625;-0.71392822265625;3;;
289;;;;;;;9602.85471875512;-0.7177734375;-0.00098236083984375;-0.716461181640625;3;;
290;;;;;;;9603.09885975451;-0.72021484375;-0.00098052978515625;-0.718902587890625;3;;
291;;;;;;;9603.34300075389;-0.72265625;-0.00097991943359375;-0.7213134765625;3;;
292;;;;;;;9603.58714175327;-0.72509765625;-0.00097930908203125;-0.723785400390625;3;;
293;;;;;;;9603.83128275266;-0.7275390625;-0.0009783935546875;-0.726226806640625;3;;
294;;;;;;;9604.07542375204;-0.72998046875;-0.000977783203125;-0.728668212890625;3;;
295;;;;;;;9604.31956475142;-0.732421875;-0.00097686767578125;-0.73114013671875;3;;
296;;;;;;;9604.56370575081;-0.73486328125;-0.0009759521484375;-0.7335205078125;3;;
297;;;;;;;9604.80784675019;-0.7373046875;-0.000975341796875;-0.735992431640625;3;;
298;;;;;;;9605.05198774958;-0.73974609375;-0.0009759521484375;-0.7384033203125;3;;
299;;;;;;;9605.29612874896;-0.7421875;-0.00097564697265625;-0.74090576171875;3;;
300;;;;;;;9605.54026974834;-0.74462890625;-0.000975341796875;-0.743316650390625;3;;
301;;;;;;;9605.78441074772;-0.7470703125;-0.0009747314453125;-0.745758056640625;3;;
302;;;;;;;9606.02855174711;-0.74951171875;-0.00097412109375;-0.748199462890625;3;;
303;;;;;;;9606.27269274649;-0.751953125;-0.00097381591796875;-0.7513427734375;3;;
304;;;;;;;9606.51683374588;-0.75439453125;-0.0009735107421875;-0.753173828125;3;;
305;;;;;;;9606.76097474526;-0.7568359375;-0.0009735107421875;-0.7562255859375;3;;
306;;;;;;;9607.00511574464;-0.75927734375;-0.00097320556640625;-0.7586669921875;3;;
307;;;;;;;9607.24925674403;-0.76171875;-0.00097259521484375;-0.76080322265625;3;;
308;;;;;;;9607.49339774341;-0.76416015625;-0.0009716796875;-0.76324462890625;3;;
309;;;;;;;9607.73753874279;-0.7666015625;-0.000970458984375;-0.76568603515625;3;;
310;;;;;;;9607.98167974218;-0.76904296875;-0.000970458984375;-0.76812744140625;3;;
311;;;;;;;9608.22582074156;-0.771484375;-0.000970458984375;-0.7708740234375;3;;
312;;;;;;;9608.46996174095;-0.77392578125;-0.0009698486328125;-0.7733154296875;3;;
313;;;;;;;9608.71410274033;-0.7763671875;-0.00097015380859375;-0.7757568359375;3;;
314;;;;;;;9608.95824373971;-0.77880859375;-0.00097076416015625;-0.7781982421875;3;;
315;;;;;;;9609.2023847391;-0.78125;-0.00097137451171875;-0.78125;3;;
316;;;;;;;9609.44652573848;-0.78369140625;-0.0009716796875;-0.7830810546875;3;;
317;;;;;;;9609.69066673786;-0.7861328125;-0.0009716796875;-0.78460693359375;3;;
318;;;;;;;9609.93480773725;-0.78857421875;-0.00097198486328125;-0.7879638671875;3;;
319;;;;;;;9610.17894873663;-0.791015625;-0.00096954345703125;-0.7904052734375;3;;
320;;;;;;;9610.42308973601;-0.79345703125;-0.000970458984375;-0.7928466796875;3;;
321;;;;;;;9610.6672307354;-0.7958984375;-0.0009686279296875;-0.7952880859375;3;;
322;;;;;;;9610.91137173478;-0.79833984375;-0.00096771240234375;-0.79742431640625;3;;
323;;;;;;;9611.15551273417;-0.80078125;-0.0009686279296875;-0.79986572265625;3;;
324;;;;;;;9611.39965373355;-0.80322265625;-0.00096954345703125;-0.80230712890625;3;;
325;;;;;;;9611.64379473293;-0.8056640625;-0.000970458984375;-0.8050537109375;3;;
326;;;;;;;9611.88793573232;-0.80810546875;-0.00097015380859375;-0.80780029296875;3;;
327;;;;;;;9612.1320767317;-0.810546875;-0.00097137451171875;-0.809326171875;3;;
328;;;;;;;9612.37621773108;-0.81298828125;-0.00097137451171875;-0.8123779296875;3;;
329;;;;;;;9612.62035873047;-0.8154296875;-0.00097137451171875;-0.81451416015625;3;;
330;;;;;;;9612.86449972985;-0.81787109375;-0.0009722900390625;-0.816650390625;3;;
331;;;;;;;9613.10864072923;-0.8203125;-0.00097137451171875;-0.81939697265625;3;;
332;;;;;;;9613.35278172862;-0.82275390625;-0.0009716796875;-0.82183837890625;3;;
333;;;;;;;9613.596922728;-0.8251953125;-0.000972900390625;-0.823974609375;3;;
334;;;;;;;9613.84106372738;-0.82763671875;-0.00097259521484375;-0.82763671875;3;;
335;;;;;;;9614.08520472677;-0.830078125;-0.000972900390625;-0.82916259765625;3;;
336;;;;;;;9614.32934572615;-0.83251953125;-0.000972900390625;-0.83160400390625;3;;
337;;;;;;;9614.57348672554;-0.8349609375;-0.0009735107421875;-0.8343505859375;3;;
338;;;;;;;9614.81762772492;-0.83740234375;-0.0009747314453125;-0.83648681640625;3;;
339;;;;;;;9615.0617687243;-0.83984375;-0.0009735107421875;-0.8392333984375;3;;
340;;;;;;;9615.30590972369;-0.84228515625;-0.00097503662109375;-0.84197998046875;3;;
341;;;;;;;9615.55005072307;-0.8447265625;-0.0009783935546875;-0.84381103515625;3;;
342;;;;;;;9615.79419172245;-0.84716796875;-0.00097625732421875;-0.8465576171875;3;;
343;;;;;;;9616.03833272184;-0.849609375;-0.0009759521484375;-0.84869384765625;3;;
344;;;;;;;9616.28247372122;-0.85205078125;-0.00097808837890625;-0.8514404296875;3;;
345;;;;;;;9616.5266147206;-0.8544921875;-0.000977783203125;-0.85418701171875;3;;
346;;;;;;;9616.77075571999;-0.85693359375;-0.00097869873046875;-0.855712890625;3;;
347;;;;;;;9617.01489671937;-0.859375;-0.00097991943359375;-0.8587646484375;3;;
348;;;;;;;9617.25903771876;-0.86181640625;-0.00098114013671875;-0.8612060546875;3;;
349;;;;;;;9617.50317871814;-0.8642578125;-0.0009820556640625;-0.86334228515625;3;;
350;;;;;;;9617.74731971752;-0.86669921875;-0.0009820556640625;-0.8660888671875;3;;
351;;;;;;;9617.99146071691;-0.869140625;-0.000982666015625;-0.86822509765625;3;;
352;;;;;;;9618.23560171629;-0.87158203125;-0.0009820556640625;-0.8709716796875;3;;
353;;;;;;;9618.47974271567;-0.8740234375;-0.00098175048828125;-0.8734130859375;3;;
354;;;;;;;9618.72388371506;-0.87646484375;-0.00098358154296875;-0.87554931640625;3;;
355;;;;;;;9618.96802471444;-0.87890625;-0.00098602294921875;-0.8782958984375;3;;
356;;;;;;;9619.21216571382;-0.88134765625;-0.0009857177734375;-0.8807373046875;3;;
357;;;;;;;9619.45630671321;-0.8837890625;-0.00098785400390625;-0.8831787109375;3;;
358;;;;;;;9619.70044771259;-0.88623046875;-0.00098968505859375;-0.88531494140625;3;;
359;;;;;;;9619.94458871197;-0.888671875;-0.000989990234375;-0.88775634765625;3;;
360;;;;;;;9620.18872971136;-0.89111328125;-0.00098968505859375;-0.89019775390625;3;;
361;;;;;;;9620.43287071074;-0.8935546875;-0.0009912109375;-0.89324951171875;3;;
362;;;;;;;9620.67701171013;-0.89599609375;-0.00099029541015625;-0.8953857421875;3;;
363;;;;;;;9620.92115270951;-0.8984375;-0.000992431640625;-0.89813232421875;3;;
364;;;;;;;9621.16529370889;-0.90087890625;-0.000992431640625;-0.89996337890625;3;;
365;;;;;;;9621.40943470828;-0.9033203125;-0.00099273681640625;-0.9033203125;3;;
366;;;;;;;9621.65357570766;-0.90576171875;-0.0009930419921875;-0.90545654296875;3;;
367;;;;;;;9621.89771670704;-0.908203125;-0.00099395751953125;-0.90789794921875;3;;
368;;;;;;;9622.14185770643;-0.91064453125;-0.000994873046875;-0.9100341796875;3;;
369;;;;;;;9622.38599870581;-0.9130859375;-0.0009954833984375;-0.9124755859375;3;;
370;;;;;;;9622.63013970519;-0.91552734375;-0.0009954833984375;-0.91461181640625;3;;
371;;;;;;;9622.87428070458;-0.91796875;-0.000997314453125;-0.91705322265625;3;;
372;;;;;;;9623.11842170396;-0.92041015625;-0.00099578857421875;-0.9197998046875;3;;
373;;;;;;;9623.36256270335;-0.9228515625;-0.00099822998046875;-0.92254638671875;3;;
374;;;;;;;9623.60670370273;-0.92529296875;-0.00099884033203125;-0.92437744140625;3;;
375;;;;;;;9623.85084470211;-0.927734375;-0.00099853515625;-0.92742919921875;3;;
376;;;;;;;9624.0949857015;-0.93017578125;-0.00099822998046875;-0.928955078125;3;;
377;;;;;;;9624.33912670088;-0.9326171875;-0.00099822998046875;-0.9320068359375;3;;
378;;;;;;;9624.58326770026;-0.93505859375;-0.00099884033203125;-0.9344482421875;3;;
379;;;;;;;9624.82740869965;-0.9375;-0.0009991455078125;-0.93658447265625;3;;
380;;;;;;;9625.07154969903;-0.93994140625;-0.0009979248046875;-0.93902587890625;3;;
381;;;;;;;9625.31569069841;-0.9423828125;-0.00099884033203125;-0.94146728515625;3;;
382;;;;;;;9625.5598316978;-0.94482421875;-0.00099945068359375;-0.94451904296875;3;;
383;;;;;;;9625.80397269718;-0.947265625;-0.000999755859375;-0.94696044921875;3;;
384;;;;;;;9626.04811369656;-0.94970703125;-0.0010009765625;-0.9490966796875;3;;
385;;;;;;;9626.29225469595;-0.9521484375;-0.00100128173828125;-0.9515380859375;3;;
386;;;;;;;9626.53639569533;-0.95458984375;-0.0010015869140625;-0.95428466796875;3;;
387;;;;;;;9626.78053669472;-0.95703125;-0.00100189208984375;-0.955810546875;3;;
388;;;;;;;9627.0246776941;-0.95947265625;-0.00100189208984375;-0.95916748046875;3;;
389;;;;;;;9627.26881869348;-0.9619140625;-0.001002197265625;-0.9613037109375;3;;
390;;;;;;;9627.51295969287;-0.96435546875;-0.00100250244140625;-0.9637451171875;3;;
391;;;;;;;9627.75710069225;-0.966796875;-0.001002197265625;-0.965576171875;3;;
392;;;;;;;9628.00124169163;-0.96923828125;-0.0010009765625;-0.96832275390625;3;;
393;;;;;;;9628.24538269102;-0.9716796875;-0.0010003662109375;-0.97137451171875;3;;
394;;;;;;;9628.4895236904;-0.97412109375;-0.0010009765625;-0.972900390625;3;;
395;;;;;;;9628.73366468978;-0.9765625;-0.0010003662109375;-0.97564697265625;3;;
396;;;;;;;9628.97780568917;-0.97900390625;-0.00100128173828125;-0.9783935546875;3;;
397;;;;;;;9629.22194668855;-0.9814453125;-0.001002197265625;-0.98052978515625;3;;
398;;;;;;;9629.46608768794;-0.98388671875;-0.0010028076171875;-0.98358154296875;3;;
399;;;;;;;9629.71022868732;-0.986328125;-0.0010028076171875;-0.9857177734375;3;;
400;;;;;;;9629.9543696867;-0.98876953125;-0.00100311279296875;-0.9881591796875;3;;
401;;;;;;;9630.19851068609;-0.9912109375;-0.0010052490234375;-0.99090576171875;3;;
402;;;;;;;9630.44265168547;-0.99365234375;-0.00100372314453125;-0.99273681640625;3;;
403;;;;;;;9630.68679268485;-0.99609375;-0.001004638671875;-0.99517822265625;3;;
404;;;;;;;9630.93093368424;-0.99853515625;-0.0010040283203125;-0.99822998046875;3;;
405;;;;;;;9631.17507468362;-1.0009765625;-0.0010040283203125;-1.00006103515625;3;;
406;;;;;;;9631.419215683;-0.99853515625;-0.00099761962890625;-0.997314453125;3;;
407;;;;;;;9631.66335668239;-0.99609375;-0.00099334716796875;-0.9954833984375;3;;
408;;;;;;;9631.90749768177;-0.99365234375;-0.00098724365234375;-0.9930419921875;3;;
409;;;;;;;9632.15163868115;-0.9912109375;-0.00098419189453125;-0.99029541015625;3;;
410;;;;;;;9632.39577968054;-0.98876953125;-0.00097991943359375;-0.98846435546875;3;;
411;;;;;;;9632.63992067992;-0.986328125;-0.00097686767578125;-0.98541259765625;3;;
412;;;;;;;9632.88406167931;-0.98388671875;-0.00097503662109375;-0.9832763671875;3;;
413;;;;;;;9633.12820267869;-0.9814453125;-0.000972900390625;-0.98052978515625;3;;
414;;;;;;;9633.37234367807;-0.97900390625;-0.000970458984375;-0.97808837890625;3;;
415;;;;;;;9633.61648467746;-0.9765625;-0.00096954345703125;-0.97564697265625;3;;
416;;;;;;;9633.86062567684;-0.97412109375;-0.000966796875;-0.97412109375;3;;
417;;;;;;;9634.10476667622;-0.9716796875;-0.00096527099609375;-0.97137451171875;3;;
418;;;;;;;9634.34890767561;-0.96923828125;-0.00096405029296875;-0.96832275390625;3;;
419;;;;;;;9634.59304867499;-0.966796875;-0.00096160888671875;-0.96649169921875;3;;
420;;;;;;;9634.83718967437;-0.96435546875;-0.00095947265625;-0.96405029296875;3;;
421;;;;;;;9635.08133067376;-0.9619140625;-0.00095703125;-0.96099853515625;3;;
422;;;;;;;9635.32547167314;-0.95947265625;-0.00095611572265625;-0.9588623046875;3;;
423;;;;;;;9635.56961267253;-0.95703125;-0.0009552001953125;-0.955810546875;3;;
424;;;;;;;9635.81375367191;-0.95458984375;-0.0009527587890625;-0.95428466796875;3;;
425;;;;;;;9636.05789467129;-0.9521484375;-0.00095245361328125;-0.9515380859375;3;;
426;;;;;;;9636.30203567068;-0.94970703125;-0.0009515380859375;-0.94879150390625;3;;
427;;;;;;;9636.54617667006;-0.947265625;-0.00095001220703125;-0.94696044921875;3;;
428;;;;;;;9636.79031766944;-0.94482421875;-0.000947265625;-0.94482421875;3;;
429;;;;;;;9637.03445866883;-0.9423828125;-0.00094696044921875;-0.941162109375;3;;
430;;;;;;;9637.27859966821;-0.93994140625;-0.000946044921875;-0.93902587890625;3;;
431;;;;;;;9637.52274066759;-0.9375;-0.00094482421875;-0.9368896484375;3;;
432;;;;;;;9637.76688166698;-0.93505859375;-0.00094329833984375;-0.93414306640625;3;;
433;;;;;;;9638.01102266636;-0.9326171875;-0.00094146728515625;-0.93231201171875;3;;
434;;;;;;;9638.25516366574;-0.93017578125;-0.00093994140625;-0.9295654296875;3;;
435;;;;;;;9638.49930466513;-0.927734375;-0.0009405517578125;-0.9271240234375;3;;
436;;;;;;;9638.74344566451;-0.92529296875;-0.00093902587890625;-0.9246826171875;3;;
437;;;;;;;9638.9875866639;-0.9228515625;-0.00093780517578125;-0.9222412109375;3;;
438;;;;;;;9639.23172766328;-0.92041015625;-0.00093719482421875;-0.92010498046875;3;;
439;;;;;;;9639.47586866266;-0.91796875;-0.00093414306640625;-0.9173583984375;3;;
440;;;;;;;9639.72000966205;-0.91552734375;-0.00093353271484375;-0.91461181640625;3;;
441;;;;;;;9639.96415066143;-0.9130859375;-0.000933837890625;-0.91217041015625;3;;
442;;;;;;;9640.20829166081;-0.91064453125;-0.00093292236328125;-0.9100341796875;3;;
443;;;;;;;9640.4524326602;-0.908203125;-0.00093353271484375;-0.90728759765625;3;;
444;;;;;;;9640.69657365958;-0.90576171875;-0.00093231201171875;-0.90484619140625;3;;
445;;;;;;;9640.94071465896;-0.9033203125;-0.0009307861328125;-0.9027099609375;3;;
446;;;;;;;9641.18485565835;-0.90087890625;-0.00092803955078125;-0.90057373046875;3;;
447;;;;;;;9641.42899665773;-0.8984375;-0.000927734375;-0.8978271484375;3;;
448;;;;;;;9641.67313765712;-0.89599609375;-0.0009259033203125;-0.89508056640625;3;;
449;;;;;;;9641.9172786565;-0.8935546875;-0.00092498779296875;-0.89263916015625;3;;
450;;;;;;;9642.16141965588;-0.89111328125;-0.0009246826171875;-0.89080810546875;3;;
451;;;;;;;9642.40556065527;-0.888671875;-0.0009246826171875;-0.88836669921875;3;;
452;;;;;;;9642.64970165465;-0.88623046875;-0.00092315673828125;-0.88592529296875;3;;
453;;;;;;;9642.89384265403;-0.8837890625;-0.0009234619140625;-0.882568359375;3;;
454;;;;;;;9643.13798365342;-0.88134765625;-0.00092254638671875;-0.8807373046875;3;;
455;;;;;;;9643.3821246528;-0.87890625;-0.0009234619140625;-0.8782958984375;3;;
456;;;;;;;9643.62626565218;-0.87646484375;-0.00092041015625;-0.8758544921875;3;;
457;;;;;;;9643.87040665157;-0.8740234375;-0.00092041015625;-0.8740234375;3;;
458;;;;;;;9644.11454765095;-0.87158203125;-0.00092010498046875;-0.8709716796875;3;;
459;;;;;;;9644.35868865033;-0.869140625;-0.00091949462890625;-0.8685302734375;3;;
460;;;;;;;9644.60282964972;-0.86669921875;-0.00091827392578125;-0.8660888671875;3;;
461;;;;;;;9644.8469706491;-0.8642578125;-0.00091796875;-0.86334228515625;3;;
462;;;;;;;9645.09111164849;-0.86181640625;-0.00091552734375;-0.86151123046875;3;;
463;;;;;;;9645.33525264787;-0.859375;-0.0009161376953125;-0.8587646484375;3;;
464;;;;;;;9645.57939364725;-0.85693359375;-0.00091461181640625;-0.8563232421875;3;;
465;;;;;;;9645.82353464664;-0.8544921875;-0.0009136962890625;-0.8538818359375;3;;
466;;;;;;;9646.06767564602;-0.85205078125;-0.00091339111328125;-0.8514404296875;3;;
467;;;;;;;9646.3118166454;-0.849609375;-0.0009136962890625;-0.8489990234375;3;;
468;;;;;;;9646.55595764479;-0.84716796875;-0.00091400146484375;-0.84625244140625;3;;
469;;;;;;;9646.80009864417;-0.8447265625;-0.0009136962890625;-0.8441162109375;3;;
470;;;;;;;9647.04423964355;-0.84228515625;-0.000914306640625;-0.84136962890625;3;;
471;;;;;;;9647.28838064294;-0.83984375;-0.00091461181640625;-0.83892822265625;3;;
472;;;;;;;9647.53252164232;-0.83740234375;-0.00091400146484375;-0.83740234375;3;;
473;;;;;;;9647.77666264171;-0.8349609375;-0.00091461181640625;-0.8343505859375;3;;
474;;;;;;;9648.02080364109;-0.83251953125;-0.0009130859375;-0.8319091796875;3;;
475;;;;;;;9648.26494464047;-0.830078125;-0.0009124755859375;-0.828857421875;3;;
476;;;;;;;9648.50908563986;-0.82763671875;-0.0009130859375;-0.82672119140625;3;;
477;;;;;;;9648.75322663924;-0.8251953125;-0.0009136962890625;-0.82427978515625;3;;
478;;;;;;;9648.99736763862;-0.82275390625;-0.00091278076171875;-0.8221435546875;3;;
479;;;;;;;9649.24150863801;-0.8203125;-0.00091339111328125;-0.82000732421875;3;;
480;;;;;;;9649.48564963739;-0.81787109375;-0.0009136962890625;-0.8172607421875;3;;
481;;;;;;;9649.72979063677;-0.8154296875;-0.000914306640625;-0.8148193359375;3;;
482;;;;;;;9649.97393163616;-0.81298828125;-0.0009149169921875;-0.8123779296875;3;;
483;;;;;;;9650.21807263554;-0.810546875;-0.00091522216796875;-0.81024169921875;3;;
484;;;;;;;9650.46221363492;-0.80810546875;-0.00091583251953125;-0.8074951171875;3;;
485;;;;;;;9650.70635463431;-0.8056640625;-0.00091644287109375;-0.804443359375;3;;
486;;;;;;;9650.95049563369;-0.80322265625;-0.00091552734375;-0.80291748046875;3;;
487;;;;;;;9651.19463663308;-0.80078125;-0.0009161376953125;-0.79986572265625;3;;
488;;;;;;;9651.43877763246;-0.79833984375;-0.0009161376953125;-0.7977294921875;3;;
489;;;;;;;9651.68291863184;-0.7958984375;-0.0009161376953125;-0.7952880859375;3;;
490;;;;;;;9651.92705963123;-0.79345703125;-0.000916748046875;-0.79254150390625;3;;
491;;;;;;;9652.17120063061;-0.791015625;-0.00091705322265625;-0.7904052734375;3;;
492;;;;;;;9652.41534162999;-0.78857421875;-0.00091766357421875;-0.78826904296875;3;;
493;;;;;;;9652.65948262938;-0.7861328125;-0.00091766357421875;-0.784912109375;3;;
494;;;;;;;9652.90362362876;-0.78369140625;-0.0009210205078125;-0.78277587890625;3;;
495;;;;;;;9653.14776462815;-0.78125;-0.0009197998046875;-0.78033447265625;3;;
496;;;;;;;9653.39190562753;-0.77880859375;-0.00092071533203125;-0.77789306640625;3;;
497;;;;;;;9653.63604662691;-0.7763671875;-0.00092254638671875;-0.77606201171875;3;;
498;;;;;;;9653.8801876263;-0.77392578125;-0.00092529296875;-0.7733154296875;3;;
499;;;;;;;9654.12432862568;-0.771484375;-0.00092498779296875;-0.7708740234375;3;;
500;;;;;;;9654.36846962506;-0.76904296875;-0.0009259033203125;-0.7684326171875;3;;
501;;;;;;;9654.61261062445;-0.7666015625;-0.000926513671875;-0.76629638671875;3;;
502;;;;;;;9654.85675162383;-0.76416015625;-0.00092742919921875;-0.76324462890625;3;;
503;;;;;;;9655.10089262321;-0.76171875;-0.00092926025390625;-0.76141357421875;3;;
504;;;;;;;9655.3450336226;-0.75927734375;-0.00092987060546875;-0.7586669921875;3;;
505;;;;;;;9655.58917462198;-0.7568359375;-0.00093109130859375;-0.7562255859375;3;;
506;;;;;;;9655.83331562136;-0.75439453125;-0.00093231201171875;-0.7537841796875;3;;
507;;;;;;;9656.07745662075;-0.751953125;-0.00093353271484375;-0.75103759765625;3;;
508;;;;;;;9656.32159762013;-0.74951171875;-0.00093536376953125;-0.74810791015625;3;;
509;;;;;;;9656.56573861951;-0.7470703125;-0.00093658447265625;-0.7457275390625;3;;
510;;;;;;;9656.8098796189;-0.74462890625;-0.0009375;-0.7432861328125;3;;
511;;;;;;;9657.05402061828;-0.7421875;-0.00093902587890625;-0.74090576171875;3;;
512;;;;;;;9657.29816161767;-0.73974609375;-0.00093994140625;-0.73846435546875;3;;
513;;;;;;;9657.54230261705;-0.7373046875;-0.00094146728515625;-0.735992431640625;3;;
514;;;;;;;9657.78644361643;-0.73486328125;-0.000943603515625;-0.7335205078125;3;;
515;;;;;;;9658.03058461582;-0.732421875;-0.00094482421875;-0.73114013671875;3;;
516;;;;;;;9658.2747256152;-0.72998046875;-0.0009423828125;-0.7286376953125;3;;
517;;;;;;;9658.51886661458;-0.7275390625;-0.0009454345703125;-0.726165771484375;3;;
518;;;;;;;9658.76300761397;-0.72509765625;-0.000946044921875;-0.72381591796875;3;;
519;;;;;;;9659.00714861335;-0.72265625;-0.00094757080078125;-0.721282958984375;3;;
520;;;;;;;9659.25128961274;-0.72021484375;-0.00094970703125;-0.718841552734375;3;;
521;;;;;;;9659.49543061212;-0.7177734375;-0.00094879150390625;-0.7164306640625;3;;
522;;;;;;;9659.7395716115;-0.71533203125;-0.0009515380859375;-0.714019775390625;3;;
523;;;;;;;9659.98371261089;-0.712890625;-0.00095245361328125;-0.71160888671875;3;;
524;;;;;;;9660.22785361027;-0.71044921875;-0.00095458984375;-0.7091064453125;3;;
525;;;;;;;9660.47199460965;-0.7080078125;-0.000955810546875;-0.706634521484375;3;;
526;;;;;;;9660.71613560904;-0.70556640625;-0.00095489501953125;-0.704254150390625;3;;
527;;;;;;;9660.96027660842;-0.703125;-0.00095672607421875;-0.7017822265625;3;;
528;;;;;;;9661.2044176078;-0.70068359375;-0.00095672607421875;-0.699310302734375;3;;
529;;;;;;;9661.44855860719;-0.6982421875;-0.00095977783203125;-0.69696044921875;3;;
530;;;;;;;9661.69269960657;-0.69580078125;-0.00096038818359375;-0.6944580078125;3;;
531;;;;;;;9661.93684060595;-0.693359375;-0.00095916748046875;-0.692047119140625;3;;
532;;;;;;;9662.18098160534;-0.69091796875;-0.0009600830078125;-0.689605712890625;3;;
533;;;;;;;9662.42512260472;-0.6884765625;-0.0009625244140625;-0.6871337890625;3;;
534;;;;;;;9662.6692636041;-0.68603515625;-0.00096343994140625;-0.68475341796875;3;;
535;;;;;;;9662.91340460349;-0.68359375;-0.00096435546875;-0.682281494140625;3;;
536;;;;;;;9663.15754560287;-0.68115234375;-0.00096435546875;-0.679840087890625;3;;
537;;;;;;;9663.40168660226;-0.6787109375;-0.000965576171875;-0.677337646484375;3;;
538;;;;;;;9663.64582760164;-0.67626953125;-0.00096649169921875;-0.67498779296875;3;;
539;;;;;;;9663.88996860102;-0.673828125;-0.000966796875;-0.6724853515625;3;;
540;;;;;;;9664.13410960041;-0.67138671875;-0.000968017578125;-0.67010498046875;3;;
541;;;;;;;9664.37825059979;-0.6689453125;-0.00096954345703125;-0.6676025390625;3;;
542;;;;;;;9664.62239159917;-0.66650390625;-0.0009710693359375;-0.6651611328125;3;;
543;;;;;;;9664.86653259856;-0.6640625;-0.00097076416015625;-0.66278076171875;3;;
544;;;;;;;9665.11067359794;-0.66162109375;-0.00097076416015625;-0.660308837890625;3;;
545;;;;;;;9665.35481459733;-0.6591796875;-0.0009716796875;-0.6578369140625;3;;
546;;;;;;;9665.59895559671;-0.65673828125;-0.00097076416015625;-0.65545654296875;3;;
547;;;;;;;9665.84309659609;-0.654296875;-0.0009710693359375;-0.652984619140625;3;;
548;;;;;;;9666.08723759548;-0.65185546875;-0.0009710693359375;-0.650543212890625;3;;
549;;;;;;;9666.33137859486;-0.6494140625;-0.00097015380859375;-0.648101806640625;3;;
550;;;;;;;9666.57551959424;-0.64697265625;-0.0009722900390625;-0.64569091796875;3;;
551;;;;;;;9666.81966059363;-0.64453125;-0.0009722900390625;-0.643218994140625;3;;
552;;;;;;;9667.06380159301;-0.64208984375;-0.000972900390625;-0.640777587890625;3;;
553;;;;;;;9667.30794259239;-0.6396484375;-0.00097442626953125;-0.638397216796875;3;;
554;;;;;;;9667.55208359178;-0.63720703125;-0.00097503662109375;-0.6358642578125;3;;
555;;;;;;;9667.79622459116;-0.634765625;-0.000975341796875;-0.6334228515625;3;;
556;;;;;;;9668.04036559054;-0.63232421875;-0.00097412109375;-0.631011962890625;3;;
557;;;;;;;9668.28450658993;-0.6298828125;-0.00097381591796875;-0.628631591796875;3;;
558;;;;;;;9668.52864758931;-0.62744140625;-0.000972900390625;-0.626129150390625;3;;
559;;;;;;;9668.7727885887;-0.625;-0.00097412109375;-0.623687744140625;3;;
560;;;;;;;9669.01692958808;-0.62255859375;-0.00097412109375;-0.6212158203125;3;;
561;;;;;;;9669.26107058746;-0.6201171875;-0.0009722900390625;-0.61883544921875;3;;
562;;;;;;;9669.50521158685;-0.61767578125;-0.0009716796875;-0.61639404296875;3;;
563;;;;;;;9669.74935258623;-0.615234375;-0.00097198486328125;-0.6138916015625;3;;
564;;;;;;;9669.99349358561;-0.61279296875;-0.000972900390625;-0.61151123046875;3;;
565;;;;;;;9670.237634585;-0.6103515625;-0.00097320556640625;-0.609039306640625;3;;
566;;;;;;;9670.48177558438;-0.60791015625;-0.00097259521484375;-0.60662841796875;3;;
567;;;;;;;9670.72591658376;-0.60546875;-0.00097198486328125;-0.604217529296875;3;;
568;;;;;;;9670.97005758315;-0.60302734375;-0.0009710693359375;-0.6016845703125;3;;
569;;;;;;;9671.21419858253;-0.6005859375;-0.00097198486328125;-0.599334716796875;3;;
570;;;;;;;9671.45833958192;-0.59814453125;-0.0009710693359375;-0.59686279296875;3;;
571;;;;;;;9671.7024805813;-0.595703125;-0.00097137451171875;-0.594482421875;3;;
572;;;;;;;9671.94662158068;-0.59326171875;-0.00096893310546875;-0.592041015625;3;;
573;;;;;;;9672.19076258007;-0.5908203125;-0.000966796875;-0.589508056640625;3;;
574;;;;;;;9672.43490357945;-0.58837890625;-0.00096710205078125;-0.58709716796875;3;;
575;;;;;;;9672.67904457883;-0.5859375;-0.000966796875;-0.584716796875;3;;
576;;;;;;;9672.92318557822;-0.58349609375;-0.00096649169921875;-0.582305908203125;3;;
577;;;;;;;9673.1673265776;-0.5810546875;-0.00096527099609375;-0.579803466796875;3;;
578;;;;;;;9673.41146757698;-0.57861328125;-0.000965576171875;-0.577392578125;3;;
579;;;;;;;9673.65560857637;-0.576171875;-0.00096466064453125;-0.574981689453125;3;;
580;;;;;;;9673.89974957575;-0.57373046875;-0.00096435546875;-0.57257080078125;3;;
581;;;;;;;9674.14389057513;-0.5712890625;-0.00096435546875;-0.570068359375;3;;
582;;;;;;;9674.38803157452;-0.56884765625;-0.00096405029296875;-0.567657470703125;3;;
583;;;;;;;9674.6321725739;-0.56640625;-0.00096282958984375;-0.565185546875;3;;
584;;;;;;;9674.87631357329;-0.56396484375;-0.00096160888671875;-0.562713623046875;3;;
585;;;;;;;9675.12045457267;-0.5615234375;-0.000960693359375;-0.56036376953125;3;;
586;;;;;;;9675.36459557205;-0.55908203125;-0.00096038818359375;-0.557891845703125;3;;
587;;;;;;;9675.60873657144;-0.556640625;-0.00095916748046875;-0.55548095703125;3;;
588;;;;;;;9675.85287757082;-0.55419921875;-0.00095855712890625;-0.553009033203125;3;;
589;;;;;;;9676.0970185702;-0.5517578125;-0.00095855712890625;-0.550567626953125;3;;
590;;;;;;;9676.34115956959;-0.54931640625;-0.0009576416015625;-0.54815673828125;3;;
591;;;;;;;9676.58530056897;-0.546875;-0.00095611572265625;-0.545745849609375;3;;
592;;;;;;;9676.82944156835;-0.54443359375;-0.0009552001953125;-0.54327392578125;3;;
593;;;;;;;9677.07358256774;-0.5419921875;-0.00095306396484375;-0.54083251953125;3;;
594;;;;;;;9677.31772356712;-0.53955078125;-0.000953369140625;-0.53839111328125;3;;
595;;;;;;;9677.56186456651;-0.537109375;-0.0009539794921875;-0.5360107421875;3;;
596;;;;;;;9677.80600556589;-0.53466796875;-0.0009521484375;-0.533538818359375;3;;
597;;;;;;;9678.05014656527;-0.5322265625;-0.00095001220703125;-0.531097412109375;3;;
598;;;;;;;9678.29428756466;-0.52978515625;-0.00094970703125;-0.52862548828125;3;;
599;;;;;;;9678.53842856404;-0.52734375;-0.00094940185546875;-0.526123046875;3;;
600;;;;;;;9678.78256956342;-0.52490234375;-0.0009478759765625;-0.5238037109375;3;;
601;;;;;;;9679.02671056281;-0.5224609375;-0.00094635009765625;-0.5213623046875;3;;
602;;;;;;;9679.27085156219;-0.52001953125;-0.00094573974609375;-0.518890380859375;3;;
603;;;;;;;9679.51499256157;-0.517578125;-0.00094482421875;-0.516387939453125;3;;
604;;;;;;;9679.75913356096;-0.51513671875;-0.0009442138671875;-0.514068603515625;3;;
605;;;;;;;9680.00327456034;-0.5126953125;-0.0009429931640625;-0.511566162109375;3;;
606;;;;;;;9680.24741555972;-0.51025390625;-0.0009429931640625;-0.509124755859375;3;;
607;;;;;;;9680.49155655911;-0.5078125;-0.0009417724609375;-0.506744384765625;3;;
608;;;;;;;9680.73569755849;-0.50537109375;-0.00094085693359375;-0.5042724609375;3;;
609;;;;;;;9680.97983855788;-0.5029296875;-0.00093994140625;-0.501922607421875;3;;
610;;;;;;;9681.22397955726;-0.50048828125;-0.00093780517578125;-0.499420166015625;3;;
611;;;;;;;9681.46812055664;-0.498046875;-0.00093780517578125;-0.4969482421875;3;;
612;;;;;;;9681.71226155603;-0.49560546875;-0.00093719482421875;-0.494537353515625;3;;
613;;;;;;;9681.95640255541;-0.4931640625;-0.00093597412109375;-0.492034912109375;3;;
614;;;;;;;9682.20054355479;-0.49072265625;-0.000933837890625;-0.48968505859375;3;;
615;;;;;;;9682.44468455418;-0.48828125;-0.00093231201171875;-0.487213134765625;3;;
616;;;;;;;9682.68882555356;-0.48583984375;-0.00093048095703125;-0.48480224609375;3;;
617;;;;;;;9682.93296655294;-0.4833984375;-0.0009295654296875;-0.482330322265625;3;;
618;;;;;;;9683.17710755233;-0.48095703125;-0.000928955078125;-0.4798583984375;3;;
619;;;;;;;9683.42124855171;-0.478515625;-0.000927734375;-0.47747802734375;3;;
620;;;;;;;9683.6653895511;-0.47607421875;-0.00092620849609375;-0.475006103515625;3;;
621;;;;;;;9683.90953055048;-0.4736328125;-0.00092498779296875;-0.4725341796875;3;;
622;;;;;;;9684.15367154986;-0.47119140625;-0.00092315673828125;-0.470123291015625;3;;
623;;;;;;;9684.39781254925;-0.46875;-0.00092193603515625;-0.467742919921875;3;;
624;;;;;;;9684.64195354863;-0.46630859375;-0.00092010498046875;-0.465301513671875;3;;
625;;;;;;;9684.88609454801;-0.4638671875;-0.00091827392578125;-0.462860107421875;3;;
626;;;;;;;9685.1302355474;-0.46142578125;-0.0009161376953125;-0.46038818359375;3;;
627;;;;;;;9685.37437654678;-0.458984375;-0.00091461181640625;-0.457977294921875;3;;
628;;;;;;;9685.61851754616;-0.45654296875;-0.0009130859375;-0.45556640625;3;;
629;;;;;;;9685.86265854555;-0.4541015625;-0.0009100341796875;-0.453125;3;;
630;;;;;;;9686.10679954493;-0.45166015625;-0.0009075927734375;-0.450653076171875;3;;
631;;;;;;;9686.35094054431;-0.44921875;-0.0009051513671875;-0.448211669921875;3;;
632;;;;;;;9686.5950815437;-0.44677734375;-0.0009027099609375;-0.44573974609375;3;;
633;;;;;;;9686.83922254308;-0.4443359375;-0.0009002685546875;-0.443328857421875;3;;
634;;;;;;;9687.08336354247;-0.44189453125;-0.0008984375;-0.44091796875;3;;
635;;;;;;;9687.32750454185;-0.439453125;-0.00089599609375;-0.438446044921875;3;;
636;;;;;;;9687.57164554123;-0.43701171875;-0.0008935546875;-0.43603515625;3;;
637;;;;;;;9687.81578654062;-0.4345703125;-0.0008905029296875;-0.433563232421875;3;;
638;;;;;;;9688.05992754;-0.43212890625;-0.00088775634765625;-0.431182861328125;3;;
639;;;;;;;9688.30406853938;-0.4296875;-0.000885009765625;-0.4287109375;3;;
640;;;;;;;9688.54820953877;-0.42724609375;-0.00088104248046875;-0.426239013671875;3;;
641;;;;;;;9688.79235053815;-0.4248046875;-0.00087646484375;-0.42388916015625;3;;
642;;;;;;;9689.03649153753;-0.42236328125;-0.00087188720703125;-0.421417236328125;3;;
643;;;;;;;9689.28063253692;-0.419921875;-0.000867919921875;-0.418975830078125;3;;
644;;;;;;;9689.5247735363;-0.41748046875;-0.0008636474609375;-0.416534423828125;3;;
645;;;;;;;9689.76891453569;-0.4150390625;-0.00085906982421875;-0.41412353515625;3;;
646;;;;;;;9690.01305553507;-0.41259765625;-0.0008544921875;-0.41162109375;3;;
647;;;;;;;9690.25719653445;-0.41015625;-0.00084991455078125;-0.409210205078125;3;;
648;;;;;;;9690.50133753384;-0.40771484375;-0.00084442138671875;-0.406768798828125;3;;
649;;;;;;;9690.74547853322;-0.4052734375;-0.0008392333984375;-0.404388427734375;3;;
650;;;;;;;9690.9896195326;-0.40283203125;-0.00083404541015625;-0.40191650390625;3;;
651;;;;;;;9691.23376053199;-0.400390625;-0.0008282470703125;-0.39947509765625;3;;
652;;;;;;;9691.47790153137;-0.39794921875;-0.00082183837890625;-0.39703369140625;3;;
653;;;;;;;9691.72204253075;-0.3955078125;-0.0008148193359375;-0.394622802734375;3;;
654;;;;;;;9691.96618353014;-0.39306640625;-0.00080780029296875;-0.392181396484375;3;;
655;;;;;;;9692.21032452952;-0.390625;-0.00080047607421875;-0.38970947265625;3;;
656;;;;;;;9692.4544655289;-0.38818359375;-0.00079254150390625;-0.38726806640625;3;;
657;;;;;;;9692.69860652829;-0.3857421875;-0.00078460693359375;-0.38482666015625;3;;
658;;;;;;;9692.94274752767;-0.38330078125;-0.00077667236328125;-0.382415771484375;3;;
659;;;;;;;9693.18688852706;-0.380859375;-0.000767822265625;-0.3800048828125;3;;
660;;;;;;;9693.43102952644;-0.37841796875;-0.0007598876953125;-0.37750244140625;3;;
661;;;;;;;9693.67517052582;-0.3759765625;-0.0007513427734375;-0.3751220703125;3;;
662;;;;;;;9693.91931152521;-0.37353515625;-0.00074249267578125;-0.372711181640625;3;;
663;;;;;;;9694.16345252459;-0.37109375;-0.0007330322265625;-0.3702392578125;3;;
664;;;;;;;9694.40759352397;-0.36865234375;-0.00072357177734375;-0.3677978515625;3;;
665;;;;;;;9694.65173452336;-0.3662109375;-0.0007135009765625;-0.36541748046875;3;;
666;;;;;;;9694.89587552274;-0.36376953125;-0.00070281982421875;-0.36297607421875;3;;
667;;;;;;;9695.14001652212;-0.361328125;-0.000692138671875;-0.360443115234375;3;;
668;;;;;;;9695.38415752151;-0.35888671875;-0.00068084716796875;-0.358062744140625;3;;
669;;;;;;;9695.62829852089;-0.3564453125;-0.00066925048828125;-0.355621337890625;3;;
670;;;;;;;9695.87243952028;-0.35400390625;-0.00065765380859375;-0.353179931640625;3;;
671;;;;;;;9696.11658051966;-0.3515625;-0.00064605712890625;-0.35076904296875;3;;
672;;;;;;;9696.36072151904;-0.34912109375;-0.00063385009765625;-0.34832763671875;3;;
673;;;;;;;9696.60486251843;-0.3466796875;-0.0006219482421875;-0.345947265625;3;;
674;;;;;;;9696.84900351781;-0.34423828125;-0.0006097412109375;-0.34344482421875;3;;
675;;;;;;;9697.09314451719;-0.341796875;-0.0005975341796875;-0.34100341796875;3;;
676;;;;;;;9697.33728551658;-0.33935546875;-0.0005853271484375;-0.338592529296875;3;;
677;;;;;;;9697.58142651596;-0.3369140625;-0.000572509765625;-0.336151123046875;3;;
678;;;;;;;9697.82556751535;-0.33447265625;-0.0005596923828125;-0.333740234375;3;;
679;;;;;;;9698.06970851473;-0.33203125;-0.00054656982421875;-0.331268310546875;3;;
680;;;;;;;9698.31384951411;-0.32958984375;-0.00053314208984375;-0.32879638671875;3;;
681;;;;;;;9698.55799051349;-0.3271484375;-0.00051971435546875;-0.326385498046875;3;;
682;;;;;;;9698.80213151288;-0.32470703125;-0.00050628662109375;-0.323974609375;3;;
683;;;;;;;9699.04627251226;-0.322265625;-0.0004927978515625;-0.321533203125;3;;
684;;;;;;;9699.29041351165;-0.31982421875;-0.000479156494140625;-0.319091796875;3;;
685;;;;;;;9699.53455451103;-0.3173828125;-0.00046563720703125;-0.316650390625;3;;
686;;;;;;;9699.77869551041;-0.31494140625;-0.000452239990234375;-0.314178466796875;3;;
687;;;;;;;9700.0228365098;-0.3125;-0.00043890380859375;-0.311737060546875;3;;
688;;;;;;;9700.26697750918;-0.31005859375;-0.000425811767578125;-0.309295654296875;3;;
689;;;;;;;9700.51111850856;-0.3076171875;-0.000412872314453125;-0.306884765625;3;;
690;;;;;;;9700.75525950795;-0.30517578125;-0.00039996337890625;-0.30438232421875;3;;
691;;;;;;;9700.99940050733;-0.302734375;-0.00038714599609375;-0.302001953125;3;;
692;;;;;;;9701.24354150671;-0.30029296875;-0.000374359130859375;-0.299530029296875;3;;
693;;;;;;;9701.4876825061;-0.2978515625;-0.000361663818359375;-0.297149658203125;3;;
694;;;;;;;9701.73182350548;-0.29541015625;-0.00034893798828125;-0.294677734375;3;;
695;;;;;;;9701.97596450487;-0.29296875;-0.000336273193359375;-0.292236328125;3;;
696;;;;;;;9702.22010550425;-0.29052734375;-0.000323822021484375;-0.289825439453125;3;;
697;;;;;;;9702.46424650363;-0.2880859375;-0.0003116455078125;-0.287384033203125;3;;
698;;;;;;;9702.70838750302;-0.28564453125;-0.000299652099609375;-0.285003662109375;3;;
699;;;;;;;9702.9525285024;-0.283203125;-0.000288055419921875;-0.282501220703125;3;;
700;;;;;;;9703.19666950178;-0.28076171875;-0.000276763916015625;-0.28009033203125;3;;
701;;;;;;;9703.44081050117;-0.2783203125;-0.0002657470703125;-0.27764892578125;3;;
702;;;;;;;9703.68495150055;-0.27587890625;-0.000255035400390625;-0.27520751953125;3;;
703;;;;;;;9703.92909249994;-0.2734375;-0.00024481201171875;-0.27276611328125;3;;
704;;;;;;;9704.17323349932;-0.27099609375;-0.000234619140625;-0.270355224609375;3;;
705;;;;;;;9704.4173744987;-0.2685546875;-0.000224700927734375;-0.267852783203125;3;;
706;;;;;;;9704.66151549808;-0.26611328125;-0.000215057373046875;-0.265411376953125;3;;
707;;;;;;;9704.90565649747;-0.263671875;-0.000205535888671875;-0.2630615234375;3;;
708;;;;;;;9705.14979749685;-0.26123046875;-0.0001962890625;-0.260589599609375;3;;
709;;;;;;;9705.39393849624;-0.2587890625;-0.00018731689453125;-0.258148193359375;3;;
710;;;;;;;9705.63807949562;-0.25634765625;-0.0001785888671875;-0.255706787109375;3;;
711;;;;;;;9705.882220495;-0.25390625;-0.000170196533203125;-0.253265380859375;3;;
712;;;;;;;9706.12636149439;-0.25146484375;-0.000162109375;-0.250823974609375;3;;
713;;;;;;;9706.37050249377;-0.2490234375;-0.000154327392578125;-0.2484130859375;3;;
714;;;;;;;9706.61464349315;-0.24658203125;-0.000146942138671875;-0.2459716796875;3;;
715;;;;;;;9706.85878449254;-0.244140625;-0.00013983154296875;-0.24346923828125;3;;
716;;;;;;;9707.10292549192;-0.24169921875;-0.000133026123046875;-0.241058349609375;3;;
717;;;;;;;9707.3470664913;-0.2392578125;-0.000126495361328125;-0.2386474609375;3;;
718;;;;;;;9707.59120749069;-0.23681640625;-0.0001202392578125;-0.236236572265625;3;;
719;;;;;;;9707.83534849007;-0.234375;-0.000114166259765625;-0.2337646484375;3;;
720;;;;;;;9708.07948948946;-0.23193359375;-0.000108367919921875;-0.231353759765625;3;;
721;;;;;;;9708.32363048884;-0.2294921875;-0.00010284423828125;-0.2288818359375;3;;
722;;;;;;;9708.56777148822;-0.22705078125;-9.7442626953125E-05;-0.22650146484375;3;;
723;;;;;;;9708.81191248761;-0.224609375;-9.2315673828125E-05;-0.224029541015625;3;;
724;;;;;;;9709.05605348699;-0.22216796875;-8.7371826171875E-05;-0.221649169921875;3;;
725;;;;;;;9709.30019448637;-0.2197265625;-8.2672119140625E-05;-0.21917724609375;3;;
726;;;;;;;9709.54433548576;-0.21728515625;-7.818603515625E-05;-0.21673583984375;3;;
727;;;;;;;9709.78847648514;-0.21484375;-7.403564453125E-05;-0.214263916015625;3;;
728;;;;;;;9710.03261748453;-0.21240234375;-7.0037841796875E-05;-0.2117919921875;3;;
729;;;;;;;9710.27675848391;-0.2099609375;-6.6314697265625E-05;-0.2093505859375;3;;
730;;;;;;;9710.52089948329;-0.20751953125;-6.268310546875E-05;-0.20697021484375;3;;
731;;;;;;;9710.76504048267;-0.205078125;-5.9234619140625E-05;-0.204498291015625;3;;
732;;;;;;;9711.00918148206;-0.20263671875;-5.5999755859375E-05;-0.202117919921875;3;;
733;;;;;;;9711.25332248144;-0.2001953125;-5.291748046875E-05;-0.199676513671875;3;;
734;;;;;;;9711.49746348083;-0.19775390625;-4.99267578125E-05;-0.19720458984375;3;;
735;;;;;;;9711.74160448021;-0.1953125;-4.718017578125E-05;-0.194732666015625;3;;
736;;;;;;;9711.98574547959;-0.19287109375;-4.44580078125E-05;-0.192413330078125;3;;
737;;;;;;;9712.22988647898;-0.1904296875;-4.18914794921875E-05;-0.189910888671875;3;;
738;;;;;;;9712.47402747836;-0.18798828125;-3.944091796875E-05;-0.18743896484375;3;;
739;;;;;;;9712.71816847774;-0.185546875;-3.712158203125E-05;-0.18499755859375;3;;
740;;;;;;;9712.96230947713;-0.18310546875;-3.49761962890625E-05;-0.182586669921875;3;;
741;;;;;;;9713.20645047651;-0.1806640625;-3.29010009765625E-05;-0.180145263671875;3;;
742;;;;;;;9713.4505914759;-0.17822265625;-3.095703125E-05;-0.17767333984375;3;;
743;;;;;;;9713.69473247528;-0.17578125;-2.9119873046875E-05;-0.17529296875;3;;
744;;;;;;;9713.93887347466;-0.17333984375;-2.7398681640625E-05;-0.1728515625;3;;
745;;;;;;;9714.18301447405;-0.1708984375;-2.5750732421875E-05;-0.170440673828125;3;;
746;;;;;;;9714.42715547343;-0.16845703125;-2.42095947265625E-05;-0.16796875;3;;
747;;;;;;;9714.67129647281;-0.166015625;-2.26959228515625E-05;-0.16552734375;3;;
748;;;;;;;9714.9154374722;-0.16357421875;-2.13226318359375E-05;-0.16314697265625;3;;
749;;;;;;;9715.15957847158;-0.1611328125;-1.99951171875E-05;-0.160675048828125;3;;
750;;;;;;;9715.40371947096;-0.15869140625;-1.87164306640625E-05;-0.158233642578125;3;;
751;;;;;;;9715.64786047035;-0.15625;-1.7498779296875E-05;-0.155792236328125;3;;
752;;;;;;;9715.89200146973;-0.15380859375;-1.6387939453125E-05;-0.153411865234375;3;;
753;;;;;;;9716.13614246911;-0.1513671875;-1.5313720703125E-05;-0.15093994140625;3;;
754;;;;;;;9716.3802834685;-0.14892578125;-1.4300537109375E-05;-0.148468017578125;3;;
755;;;;;;;9716.62442446788;-0.146484375;-1.3330078125E-05;-0.14605712890625;3;;
756;;;;;;;9716.86856546726;-0.14404296875;-1.24237060546875E-05;-0.143646240234375;3;;
757;;;;;;;9717.11270646665;-0.1416015625;-1.15814208984375E-05;-0.14117431640625;3;;
758;;;;;;;9717.35684746603;-0.13916015625;-1.07879638671875E-05;-0.13873291015625;3;;
759;;;;;;;9717.60098846542;-0.13671875;-1.00433349609375E-05;-0.1363525390625;3;;
760;;;;;;;9717.8451294648;-0.13427734375;-9.3475341796875E-06;-0.133880615234375;3;;
761;;;;;;;9718.08927046418;-0.1318359375;-8.624267578125E-06;-0.131439208984375;3;;
762;;;;;;;9718.33341146357;-0.12939453125;-8.0047607421875E-06;-0.1290283203125;3;;
763;;;;;;;9718.57755246295;-0.126953125;-7.4066162109375E-06;-0.1265869140625;3;;
764;;;;;;;9718.82169346233;-0.12451171875;-6.8145751953125E-06;-0.1241455078125;3;;
765;;;;;;;9719.06583446172;-0.1220703125;-6.292724609375E-06;-0.121612548828125;3;;
766;;;;;;;9719.3099754611;-0.11962890625;-5.7708740234375E-06;-0.119171142578125;3;;
767;;;;;;;9719.55411646049;-0.1171875;-5.2703857421875E-06;-0.1168212890625;3;;
768;;;;;;;9719.79825745987;-0.11474609375;-4.8095703125E-06;-0.114349365234375;3;;
769;;;;;;;9720.04239845925;-0.1123046875;-4.3731689453125E-06;-0.111907958984375;3;;
770;;;;;;;9720.28653945864;-0.10986328125;-3.9520263671875E-06;-0.10943603515625;3;;
771;;;;;;;9720.53068045802;-0.107421875;-3.5919189453125E-06;-0.1070556640625;3;;
772;;;;;;;9720.7748214574;-0.10498046875;-3.21533203125E-06;-0.1046142578125;3;;
773;;;;;;;9721.01896245679;-0.1025390625;-2.86773681640625E-06;-0.1021728515625;3;;
774;;;;;;;9721.26310345617;-0.10009765625;-2.52685546875E-06;-0.099700927734375;3;;
775;;;;;;;9721.50724445555;-0.09765625;-2.23388671875E-06;-0.097259521484375;3;;
776;;;;;;;9721.75138545494;-0.09521484375;-1.90887451171875E-06;-0.0948486328125;3;;
777;;;;;;;9721.99552645432;-0.0927734375;-1.66259765625E-06;-0.092376708984375;3;;
778;;;;;;;9722.2396674537;-0.09033203125;-1.36688232421875E-06;-0.09002685546875;3;;
779;;;;;;;9722.48380845309;-0.087890625;-1.14654541015625E-06;-0.0875244140625;3;;
780;;;;;;;9722.72794945247;-0.08544921875;-9.1064453125E-07;-0.085113525390625;3;;
781;;;;;;;9722.97209045185;-0.0830078125;-6.8634033203125E-07;-0.082763671875;3;;
782;;;;;;;9723.21623145124;-0.08056640625;-4.6875E-07;-0.080291748046875;3;;
783;;;;;;;9723.46037245062;-0.078125;-2.5970458984375E-07;-0.077850341796875;3;;
784;;;;;;;9723.70451345001;-0.07568359375;-2.50244140625E-08;-0.07537841796875;3;;
785;;;;;;;9723.94865444939;-0.0732421875;1.171875E-07;-0.073028564453125;3;;
786;;;;;;;9724.19279544877;-0.07080078125;2.886962890625E-07;-0.070587158203125;3;;
787;;;;;;;9724.43693644816;-0.068359375;4.949951171875E-07;-0.068115234375;3;;
788;;;;;;;9724.68107744754;-0.06591796875;6.6192626953125E-07;-0.065765380859375;3;;
789;;;;;;;9724.92521844692;-0.0634765625;8.056640625E-07;-0.063323974609375;3;;
790;;;;;;;9725.16935944631;-0.06103515625;9.7686767578125E-07;-0.060943603515625;3;;
791;;;;;;;9725.41350044569;-0.05859375;1.1126708984375E-06;-0.0584716796875;3;;
792;;;;;;;9725.65764144508;-0.05615234375;1.241455078125E-06;-0.056060791015625;3;;
793;;;;;;;9725.90178244446;-0.0537109375;1.37420654296875E-06;-0.053558349609375;3;;
794;;;;;;;9726.14592344384;-0.05126953125;1.495361328125E-06;-0.05120849609375;3;;
795;;;;;;;9726.39006444323;-0.048828125;1.6278076171875E-06;-0.0485443115234375;3;;
796;;;;;;;9726.63420544261;-0.04638671875;1.71051025390625E-06;-0.046258544921875;3;;
797;;;;;;;9726.87834644199;-0.0439453125;1.83868408203125E-06;-0.0434600830078125;3;;
798;;;;;;;9727.12248744138;-0.04150390625;1.91314697265625E-06;-0.041156005859375;3;;
799;;;;;;;9727.36662844076;-0.0390625;2.0098876953125E-06;-0.0387786865234375;3;;
800;;;;;;;9727.61076944014;-0.03662109375;2.113037109375E-06;-0.03629150390625;3;;
801;;;;;;;9727.85491043953;-0.0341796875;2.213134765625E-06;-0.034027099609375;3;;
802;;;;;;;9728.09905143891;-0.03173828125;2.29583740234375E-06;-0.031488037109375;3;;
803;;;;;;;9728.34319243829;-0.029296875;2.38037109375E-06;-0.02900390625;3;;
804;;;;;;;9728.58733343768;-0.02685546875;2.46917724609375E-06;-0.02657470703125;3;;
805;;;;;;;9728.83147443706;-0.0244140625;2.528076171875E-06;-0.0242401123046875;3;;
806;;;;;;;9729.07561543645;-0.02197265625;2.586669921875E-06;-0.02171630859375;3;;
807;;;;;;;9729.31975643583;-0.01953125;2.6409912109375E-06;-0.0192596435546875;3;;
808;;;;;;;9729.56389743521;-0.01708984375;2.69500732421875E-06;-0.0167938232421875;3;;
809;;;;;;;9729.8080384346;-0.0146484375;2.75360107421875E-06;-0.01444091796875;3;;
810;;;;;;;9730.05217943398;-0.01220703125;2.7850341796875E-06;-0.0119354248046875;3;;
811;;;;;;;9730.29632043336;-0.009765625;2.828369140625E-06;-0.00954589843750001;3;;
812;;;;;;;9730.54046143275;-0.00732421875;2.8704833984375E-06;-0.0071075439453125;3;;
813;;;;;;;9730.78460243213;-0.0048828125;2.9034423828125E-06;-0.00463256835937501;3;;
814;;;;;;;9731.02874343151;-0.00244140625;2.91839599609375E-06;-0.00226745605468751;3;;
815;;;;;;;9731.2728844309;0;2.9534912109375E-06;0.000204467773437494;3;;
816;;;;;;;9731.51702543028;0.00244140625;2.99346923828125E-06;0.0026519775390625;3;;
817;;;;;;;9731.76116642967;0.0048828125;3.0242919921875E-06;0.0050933837890625;3;;
818;;;;;;;9732.00530742905;0.00732421875;3.03253173828125E-06;0.0075714111328125;3;;
819;;;;;;;9732.24944842843;0.009765625;3.0340576171875E-06;0.0100250244140625;3;;
820;;;;;;;9732.49358942782;0.01220703125;3.03375244140625E-06;0.0124755859375;3;;
821;;;;;;;9732.7377304272;0.009765625;2.62420654296875E-06;0.01002197265625;3;;
822;;;;;;;9732.98187142658;0.00732421875;2.33978271484375E-06;0.00757751464843751;3;;
823;;;;;;;9733.22601242597;0.0048828125;2.1185302734375E-06;0.00515136718750001;3;;
824;;;;;;;9733.47015342535;0.00244140625;1.90399169921875E-06;0.002667236328125;3;;
825;;;;;;;9733.71429442473;0;1.73736572265625E-06;0.000241088867187503;3;;
826;;;;;;;9733.95843542412;-0.00244140625;1.558837890625E-06;-0.0021820068359375;3;;
827;;;;;;;9734.2025764235;-0.0048828125;1.43218994140625E-06;-0.0045928955078125;3;;
828;;;;;;;9734.44671742288;-0.00732421875;1.30279541015625E-06;-0.00705566406249999;3;;
829;;;;;;;9734.69085842227;-0.009765625;1.1669921875E-06;-0.00949707031249999;3;;
830;;;;;;;9734.93499942165;-0.01220703125;1.09771728515625E-06;-0.0119384765625;3;;
831;;;;;;;;;;;;;
832;;;;;;;;;;;;;
833;;;;;;;;;;;;;
834;;;;;;;;;;;;;
835;;;;;;;;;;;;;
836;;;;;;;;;;;;;
837;;;;;;;;;;;;;
838;;;;;;;;;;;;;
839;;;;;;;;;;;;;
840;;;;;;;;;;;;;
841;;;;;;;;;;;;;
842;;;;;;;;;;;;;
843;;;;;;;;;;;;;
844;;;;;;;;;;;;;
845;;;;;;;;;;;;;
846;;;;;;;;;;;;;
847;;;;;;;;;;;;;
848;;;;;;;;;;;;;
849;;;;;;;;;;;;;
850;;;;;;;;;;;;;
851;;;;;;;;;;;;;
852;;;;;;;;;;;;;
853;;;;;;;;;;;;;
854;;;;;;;;;;;;;
855;;;;;;;;;;;;;
856;;;;;;;;;;;;;
857;;;;;;;;;;;;;
858;;;;;;;;;;;;;
859;;;;;;;;;;;;;
860;;;;;;;;;;;;;
861;;;;;;;;;;;;;
862;;;;;;;;;;;;;
863;;;;;;;;;;;;;
864;;;;;;;;;;;;;
865;;;;;;;;;;;;;
866;;;;;;;;;;;;;
867;;;;;;;;;;;;;
868;;;;;;;;;;;;;
869;;;;;;;;;;;;;
870;;;;;;;;;;;;;
871;;;;;;;;;;;;;
872;;;;;;;;;;;;;
873;;;;;;;;;;;;;
874;;;;;;;;;;;;;
875;;;;;;;;;;;;;
876;;;;;;;;;;;;;
877;;;;;;;;;;;;;
878;;;;;;;;;;;;;
879;;;;;;;;;;;;;
880;;;;;;;;;;;;;
881;;;;;;;;;;;;;
882;;;;;;;;;;;;;
883;;;;;;;;;;;;;
884;;;;;;;;;;;;;
885;;;;;;;;;;;;;
886;;;;;;;;;;;;;
887;;;;;;;;;;;;;
888;;;;;;;;;;;;;
889;;;;;;;;;;;;;
890;;;;;;;;;;;;;
891;;;;;;;;;;;;;
892;;;;;;;;;;;;;
893;;;;;;;;;;;;;
894;;;;;;;;;;;;;
895;;;;;;;;;;;;;
896;;;;;;;;;;;;;
897;;;;;;;;;;;;;
898;;;;;;;;;;;;;
899;;;;;;;;;;;;;
900;;;;;;;;;;;;;
901;;;;;;;;;;;;;
902;;;;;;;;;;;;;
903;;;;;;;;;;;;;
904;;;;;;;;;;;;;
905;;;;;;;;;;;;;
906;;;;;;;;;;;;;
907;;;;;;;;;;;;;
908;;;;;;;;;;;;;
909;;;;;;;;;;;;;
910;;;;;;;;;;;;;
911;;;;;;;;;;;;;
912;;;;;;;;;;;;;
913;;;;;;;;;;;;;
914;;;;;;;;;;;;;
915;;;;;;;;;;;;;
916;;;;;;;;;;;;;
917;;;;;;;;;;;;;
918;;;;;;;;;;;;;
919;;;;;;;;;;;;;
920;;;;;;;;;;;;;
921;;;;;;;;;;;;;
922;;;;;;;;;;;;;
923;;;;;;;;;;;;;
924;;;;;;;;;;;;;
925;;;;;;;;;;;;;
926;;;;;;;;;;;;;
927;;;;;;;;;;;;;
928;;;;;;;;;;;;;
929;;;;;;;;;;;;;
930;;;;;;;;;;;;;
931;;;;;;;;;;;;;
932;;;;;;;;;;;;;
933;;;;;;;;;;;;;
934;;;;;;;;;;;;;
935;;;;;;;;;;;;;
936;;;;;;;;;;;;;
937;;;;;;;;;;;;;
938;;;;;;;;;;;;;
939;;;;;;;;;;;;;
940;;;;;;;;;;;;;
941;;;;;;;;;;;;;
942;;;;;;;;;;;;;
943;;;;;;;;;;;;;
944;;;;;;;;;;;;;
945;;;;;;;;;;;;;
946;;;;;;;;;;;;;
947;;;;;;;;;;;;;
948;;;;;;;;;;;;;
949;;;;;;;;;;;;;
950;;;;;;;;;;;;;
951;;;;;;;;;;;;;
952;;;;;;;;;;;;;
953;;;;;;;;;;;;;
954;;;;;;;;;;;;;
955;;;;;;;;;;;;;
956;;;;;;;;;;;;;
957;;;;;;;;;;;;;
958;;;;;;;;;;;;;
959;;;;;;;;;;;;;
960;;;;;;;;;;;;;
961;;;;;;;;;;;;;
962;;;;;;;;;;;;;
963;;;;;;;;;;;;;
964;;;;;;;;;;;;;
965;;;;;;;;;;;;;
966;;;;;;;;;;;;;
967;;;;;;;;;;;;;
968;;;;;;;;;;;;;
969;;;;;;;;;;;;;
970;;;;;;;;;;;;;
971;;;;;;;;;;;;;
972;;;;;;;;;;;;;
973;;;;;;;;;;;;;
974;;;;;;;;;;;;;
975;;;;;;;;;;;;;
976;;;;;;;;;;;;;
977;;;;;;;;;;;;;
978;;;;;;;;;;;;;
979;;;;;;;;;;;;;
980;;;;;;;;;;;;;
981;;;;;;;;;;;;;
982;;;;;;;;;;;;;
983;;;;;;;;;;;;;
984;;;;;;;;;;;;;
985;;;;;;;;;;;;;
986;;;;;;;;;;;;;
987;;;;;;;;;;;;;
988;;;;;;;;;;;;;
989;;;;;;;;;;;;;
990;;;;;;;;;;;;;
991;;;;;;;;;;;;;
992;;;;;;;;;;;;;
993;;;;;;;;;;;;;
994;;;;;;;;;;;;;
995;;;;;;;;;;;;;
996;;;;;;;;;;;;;
997;;;;;;;;;;;;;
998;;;;;;;;;;;;;
999;;;;;;;;;;;;;
1000;;;;;;;;;;;;;
1001;;;;;;;;;;;;;
1002;;;;;;;;;;;;;
1003;;;;;;;;;;;;;
1004;;;;;;;;;;;;;
1005;;;;;;;;;;;;;
1006;;;;;;;;;;;;;
1007;;;;;;;;;;;;;
1008;;;;;;;;;;;;;
1009;;;;;;;;;;;;;
1010;;;;;;;;;;;;;
1011;;;;;;;;;;;;;
1012;;;;;;;;;;;;;
1013;;;;;;;;;;;;;
1014;;;;;;;;;;;;;
1015;;;;;;;;;;;;;
1016;;;;;;;;;;;;;
1017;;;;;;;;;;;;;
1018;;;;;;;;;;;;;
1019;;;;;;;;;;;;;
1020;;;;;;;;;;;;;
1021;;;;;;;;;;;;;
1022;;;;;;;;;;;;;
1023;;;;;;;;;;;;;
1024;;;;;;;;;;;;;
1025;;;;;;;;;;;;;
1026;;;;;;;;;;;;;
1027;;;;;;;;;;;;;
1028;;;;;;;;;;;;;
1029;;;;;;;;;;;;;
1030;;;;;;;;;;;;;
1031;;;;;;;;;;;;;
1032;;;;;;;;;;;;;
1033;;;;;;;;;;;;;
1034;;;;;;;;;;;;;
1035;;;;;;;;;;;;;
1036;;;;;;;;;;;;;
1037;;;;;;;;;;;;;
1038;;;;;;;;;;;;;
1039;;;;;;;;;;;;;
1040;;;;;;;;;;;;;
1041;;;;;;;;;;;;;
1042;;;;;;;;;;;;;
1043;;;;;;;;;;;;;
1044;;;;;;;;;;;;;
1045;;;;;;;;;;;;;
1046;;;;;;;;;;;;;
1047;;;;;;;;;;;;;
1048;;;;;;;;;;;;;
1049;;;;;;;;;;;;;
1050;;;;;;;;;;;;;
1051;;;;;;;;;;;;;
1052;;;;;;;;;;;;;
1053;;;;;;;;;;;;;
1054;;;;;;;;;;;;;
1055;;;;;;;;;;;;;
1056;;;;;;;;;;;;;
1057;;;;;;;;;;;;;
1058;;;;;;;;;;;;;
1059;;;;;;;;;;;;;
1060;;;;;;;;;;;;;
1061;;;;;;;;;;;;;
1062;;;;;;;;;;;;;
1063;;;;;;;;;;;;;
1064;;;;;;;;;;;;;
1065;;;;;;;;;;;;;
1066;;;;;;;;;;;;;
1067;;;;;;;;;;;;;
1068;;;;;;;;;;;;;
1069;;;;;;;;;;;;;
1070;;;;;;;;;;;;;
1071;;;;;;;;;;;;;
1072;;;;;;;;;;;;;
1073;;;;;;;;;;;;;
1074;;;;;;;;;;;;;
1075;;;;;;;;;;;;;
1076;;;;;;;;;;;;;
1077;;;;;;;;;;;;;
1078;;;;;;;;;;;;;
1079;;;;;;;;;;;;;
1080;;;;;;;;;;;;;
1081;;;;;;;;;;;;;
1082;;;;;;;;;;;;;
1083;;;;;;;;;;;;;
1084;;;;;;;;;;;;;
1085;;;;;;;;;;;;;
1086;;;;;;;;;;;;;
1087;;;;;;;;;;;;;
1088;;;;;;;;;;;;;
1089;;;;;;;;;;;;;
1090;;;;;;;;;;;;;
1091;;;;;;;;;;;;;
1092;;;;;;;;;;;;;
1093;;;;;;;;;;;;;
1094;;;;;;;;;;;;;
1095;;;;;;;;;;;;;
1096;;;;;;;;;;;;;
1097;;;;;;;;;;;;;
1098;;;;;;;;;;;;;
1099;;;;;;;;;;;;;
1100;;;;;;;;;;;;;
1101;;;;;;;;;;;;;
1102;;;;;;;;;;;;;
1103;;;;;;;;;;;;;
1104;;;;;;;;;;;;;
1105;;;;;;;;;;;;;
1106;;;;;;;;;;;;;
1107;;;;;;;;;;;;;
1108;;;;;;;;;;;;;
1109;;;;;;;;;;;;;
1110;;;;;;;;;;;;;
1111;;;;;;;;;;;;;
1112;;;;;;;;;;;;;
1113;;;;;;;;;;;;;
1114;;;;;;;;;;;;;
1115;;;;;;;;;;;;;
1116;;;;;;;;;;;;;
1117;;;;;;;;;;;;;
1118;;;;;;;;;;;;;
1119;;;;;;;;;;;;;
1120;;;;;;;;;;;;;
1121;;;;;;;;;;;;;
1122;;;;;;;;;;;;;
1123;;;;;;;;;;;;;
1124;;;;;;;;;;;;;
1125;;;;;;;;;;;;;
1126;;;;;;;;;;;;;
1127;;;;;;;;;;;;;
1128;;;;;;;;;;;;;
1129;;;;;;;;;;;;;
1130;;;;;;;;;;;;;
1131;;;;;;;;;;;;;
1132;;;;;;;;;;;;;
1133;;;;;;;;;;;;;
1134;;;;;;;;;;;;;
1135;;;;;;;;;;;;;
1136;;;;;;;;;;;;;
1137;;;;;;;;;;;;;
1138;;;;;;;;;;;;;
1139;;;;;;;;;;;;;
1140;;;;;;;;;;;;;
1141;;;;;;;;;;;;;
1142;;;;;;;;;;;;;
1143;;;;;;;;;;;;;
1144;;;;;;;;;;;;;
1145;;;;;;;;;;;;;
1146;;;;;;;;;;;;;
1147;;;;;;;;;;;;;
1148;;;;;;;;;;;;;
1149;;;;;;;;;;;;;
1150;;;;;;;;;;;;;
1151;;;;;;;;;;;;;
1152;;;;;;;;;;;;;
1153;;;;;;;;;;;;;
1154;;;;;;;;;;;;;
1155;;;;;;;;;;;;;
1156;;;;;;;;;;;;;
1157;;;;;;;;;;;;;
1158;;;;;;;;;;;;;
1159;;;;;;;;;;;;;
1160;;;;;;;;;;;;;
1161;;;;;;;;;;;;;
1162;;;;;;;;;;;;;
1163;;;;;;;;;;;;;
1164;;;;;;;;;;;;;
1165;;;;;;;;;;;;;
1166;;;;;;;;;;;;;
1167;;;;;;;;;;;;;
1168;;;;;;;;;;;;;
1169;;;;;;;;;;;;;
1170;;;;;;;;;;;;;
1171;;;;;;;;;;;;;
1172;;;;;;;;;;;;;
1173;;;;;;;;;;;;;
1174;;;;;;;;;;;;;
1175;;;;;;;;;;;;;
1176;;;;;;;;;;;;;
1177;;;;;;;;;;;;;
1178;;;;;;;;;;;;;
1179;;;;;;;;;;;;;
1180;;;;;;;;;;;;;
1181;;;;;;;;;;;;;
1182;;;;;;;;;;;;;
1183;;;;;;;;;;;;;
1184;;;;;;;;;;;;;
1185;;;;;;;;;;;;;
1186;;;;;;;;;;;;;
1187;;;;;;;;;;;;;
1188;;;;;;;;;;;;;
1189;;;;;;;;;;;;;
1190;;;;;;;;;;;;;
1191;;;;;;;;;;;;;
1192;;;;;;;;;;;;;
1193;;;;;;;;;;;;;
1194;;;;;;;;;;;;;
1195;;;;;;;;;;;;;
1196;;;;;;;;;;;;;
1197;;;;;;;;;;;;;
1198;;;;;;;;;;;;;
1199;;;;;;;;;;;;;
1200;;;;;;;;;;;;;
1201;;;;;;;;;;;;;
1202;;;;;;;;;;;;;
1203;;;;;;;;;;;;;
1204;;;;;;;;;;;;;
1205;;;;;;;;;;;;;
1206;;;;;;;;;;;;;
1207;;;;;;;;;;;;;
1208;;;;;;;;;;;;;
1209;;;;;;;;;;;;;
1210;;;;;;;;;;;;;
1211;;;;;;;;;;;;;
1212;;;;;;;;;;;;;
1213;;;;;;;;;;;;;
1214;;;;;;;;;;;;;
1215;;;;;;;;;;;;;
1216;;;;;;;;;;;;;
1217;;;;;;;;;;;;;
1218;;;;;;;;;;;;;
1219;;;;;;;;;;;;;
1220;;;;;;;;;;;;;
1221;;;;;;;;;;;;;
1222;;;;;;;;;;;;;
1223;;;;;;;;;;;;;
1224;;;;;;;;;;;;;
1225;;;;;;;;;;;;;
1226;;;;;;;;;;;;;
1227;;;;;;;;;;;;;
1228;;;;;;;;;;;;;
1229;;;;;;;;;;;;;
1230;;;;;;;;;;;;;
1231;;;;;;;;;;;;;
1232;;;;;;;;;;;;;
1233;;;;;;;;;;;;;
1234;;;;;;;;;;;;;
1235;;;;;;;;;;;;;
1236;;;;;;;;;;;;;
1237;;;;;;;;;;;;;
1238;;;;;;;;;;;;;
1239;;;;;;;;;;;;;
1240;;;;;;;;;;;;;
1241;;;;;;;;;;;;;
1242;;;;;;;;;;;;;
1243;;;;;;;;;;;;;
1244;;;;;;;;;;;;;
1245;;;;;;;;;;;;;
1246;;;;;;;;;;;;;
1247;;;;;;;;;;;;;
1248;;;;;;;;;;;;;
1249;;;;;;;;;;;;;
1250;;;;;;;;;;;;;
1251;;;;;;;;;;;;;
1252;;;;;;;;;;;;;
1253;;;;;;;;;;;;;
1254;;;;;;;;;;;;;
1255;;;;;;;;;;;;;
1256;;;;;;;;;;;;;
1257;;;;;;;;;;;;;
1258;;;;;;;;;;;;;
1259;;;;;;;;;;;;;
1260;;;;;;;;;;;;;
1261;;;;;;;;;;;;;
1262;;;;;;;;;;;;;
1263;;;;;;;;;;;;;
1264;;;;;;;;;;;;;
1265;;;;;;;;;;;;;
1266;;;;;;;;;;;;;
1267;;;;;;;;;;;;;
1268;;;;;;;;;;;;;
1269;;;;;;;;;;;;;
1270;;;;;;;;;;;;;
1271;;;;;;;;;;;;;
1272;;;;;;;;;;;;;
1273;;;;;;;;;;;;;
1274;;;;;;;;;;;;;
1275;;;;;;;;;;;;;
1276;;;;;;;;;;;;;
1277;;;;;;;;;;;;;
1278;;;;;;;;;;;;;
1279;;;;;;;;;;;;;
1280;;;;;;;;;;;;;
1281;;;;;;;;;;;;;
1282;;;;;;;;;;;;;
1283;;;;;;;;;;;;;
1284;;;;;;;;;;;;;
1285;;;;;;;;;;;;;
1286;;;;;;;;;;;;;
1287;;;;;;;;;;;;;
1288;;;;;;;;;;;;;
1289;;;;;;;;;;;;;
1290;;;;;;;;;;;;;
1291;;;;;;;;;;;;;
1292;;;;;;;;;;;;;
1293;;;;;;;;;;;;;
1294;;;;;;;;;;;;;
1295;;;;;;;;;;;;;
1296;;;;;;;;;;;;;
1297;;;;;;;;;;;;;
1298;;;;;;;;;;;;;
1299;;;;;;;;;;;;;
1300;;;;;;;;;;;;;
1301;;;;;;;;;;;;;
1302;;;;;;;;;;;;;
1303;;;;;;;;;;;;;
1304;;;;;;;;;;;;;
1305;;;;;;;;;;;;;
1306;;;;;;;;;;;;;
1307;;;;;;;;;;;;;
1308;;;;;;;;;;;;;
1309;;;;;;;;;;;;;
1310;;;;;;;;;;;;;
1311;;;;;;;;;;;;;
1312;;;;;;;;;;;;;
1313;;;;;;;;;;;;;
1314;;;;;;;;;;;;;
1315;;;;;;;;;;;;;
1316;;;;;;;;;;;;;
1317;;;;;;;;;;;;;
1318;;;;;;;;;;;;;
1319;;;;;;;;;;;;;
1320;;;;;;;;;;;;;
1321;;;;;;;;;;;;;
1322;;;;;;;;;;;;;
1323;;;;;;;;;;;;;
1324;;;;;;;;;;;;;
1325;;;;;;;;;;;;;
1326;;;;;;;;;;;;;
1327;;;;;;;;;;;;;
1328;;;;;;;;;;;;;
1329;;;;;;;;;;;;;
1330;;;;;;;;;;;;;
1331;;;;;;;;;;;;;
1332;;;;;;;;;;;;;
1333;;;;;;;;;;;;;
1334;;;;;;;;;;;;;
1335;;;;;;;;;;;;;
1336;;;;;;;;;;;;;
1337;;;;;;;;;;;;;
1338;;;;;;;;;;;;;
1339;;;;;;;;;;;;;
1340;;;;;;;;;;;;;
1341;;;;;;;;;;;;;
1342;;;;;;;;;;;;;
1343;;;;;;;;;;;;;
1344;;;;;;;;;;;;;
1345;;;;;;;;;;;;;
1346;;;;;;;;;;;;;
1347;;;;;;;;;;;;;
1348;;;;;;;;;;;;;
1349;;;;;;;;;;;;;
1350;;;;;;;;;;;;;
1351;;;;;;;;;;;;;
1352;;;;;;;;;;;;;
1353;;;;;;;;;;;;;
1354;;;;;;;;;;;;;
1355;;;;;;;;;;;;;
1356;;;;;;;;;;;;;
1357;;;;;;;;;;;;;
1358;;;;;;;;;;;;;
1359;;;;;;;;;;;;;
1360;;;;;;;;;;;;;
1361;;;;;;;;;;;;;
1362;;;;;;;;;;;;;
1363;;;;;;;;;;;;;
1364;;;;;;;;;;;;;
1365;;;;;;;;;;;;;
1366;;;;;;;;;;;;;
1367;;;;;;;;;;;;;
1368;;;;;;;;;;;;;
1369;;;;;;;;;;;;;
1370;;;;;;;;;;;;;
1371;;;;;;;;;;;;;
1372;;;;;;;;;;;;;
1373;;;;;;;;;;;;;
1374;;;;;;;;;;;;;
1375;;;;;;;;;;;;;
1376;;;;;;;;;;;;;
1377;;;;;;;;;;;;;
1378;;;;;;;;;;;;;
1379;;;;;;;;;;;;;
1380;;;;;;;;;;;;;
1381;;;;;;;;;;;;;
1382;;;;;;;;;;;;;
1383;;;;;;;;;;;;;
1384;;;;;;;;;;;;;
1385;;;;;;;;;;;;;
1386;;;;;;;;;;;;;
1387;;;;;;;;;;;;;
1388;;;;;;;;;;;;;
1389;;;;;;;;;;;;;
1390;;;;;;;;;;;;;
1391;;;;;;;;;;;;;
1392;;;;;;;;;;;;;
1393;;;;;;;;;;;;;
1394;;;;;;;;;;;;;
1395;;;;;;;;;;;;;
1396;;;;;;;;;;;;;
1397;;;;;;;;;;;;;
1398;;;;;;;;;;;;;
1399;;;;;;;;;;;;;
1400;;;;;;;;;;;;;
1401;;;;;;;;;;;;;
1402;;;;;;;;;;;;;
1403;;;;;;;;;;;;;
1404;;;;;;;;;;;;;
1405;;;;;;;;;;;;;
1406;;;;;;;;;;;;;
1407;;;;;;;;;;;;;
1408;;;;;;;;;;;;;
1409;;;;;;;;;;;;;
1410;;;;;;;;;;;;;
1411;;;;;;;;;;;;;
1412;;;;;;;;;;;;;
1413;;;;;;;;;;;;;
1414;;;;;;;;;;;;;
1415;;;;;;;;;;;;;
1416;;;;;;;;;;;;;
1417;;;;;;;;;;;;;
1418;;;;;;;;;;;;;
1419;;;;;;;;;;;;;
1420;;;;;;;;;;;;;
1421;;;;;;;;;;;;;
1422;;;;;;;;;;;;;
1423;;;;;;;;;;;;;
1424;;;;;;;;;;;;;
1425;;;;;;;;;;;;;
1426;;;;;;;;;;;;;
1427;;;;;;;;;;;;;
1428;;;;;;;;;;;;;
1429;;;;;;;;;;;;;
1430;;;;;;;;;;;;;
1431;;;;;;;;;;;;;
1432;;;;;;;;;;;;;
1433;;;;;;;;;;;;;
1434;;;;;;;;;;;;;
1435;;;;;;;;;;;;;
1436;;;;;;;;;;;;;
1437;;;;;;;;;;;;;
1438;;;;;;;;;;;;;
1439;;;;;;;;;;;;;
1440;;;;;;;;;;;;;
1441;;;;;;;;;;;;;
1442;;;;;;;;;;;;;
1443;;;;;;;;;;;;;
1444;;;;;;;;;;;;;
1445;;;;;;;;;;;;;
1446;;;;;;;;;;;;;
1447;;;;;;;;;;;;;
1448;;;;;;;;;;;;;
1449;;;;;;;;;;;;;
1450;;;;;;;;;;;;;
1451;;;;;;;;;;;;;
1452;;;;;;;;;;;;;
1453;;;;;;;;;;;;;
1454;;;;;;;;;;;;;
1455;;;;;;;;;;;;;
1456;;;;;;;;;;;;;
1457;;;;;;;;;;;;;
1458;;;;;;;;;;;;;
1459;;;;;;;;;;;;;
1460;;;;;;;;;;;;;
1461;;;;;;;;;;;;;
1462;;;;;;;;;;;;;
1463;;;;;;;;;;;;;
1464;;;;;;;;;;;;;
1465;;;;;;;;;;;;;
1466;;;;;;;;;;;;;
1467;;;;;;;;;;;;;
1468;;;;;;;;;;;;;
1469;;;;;;;;;;;;;
1470;;;;;;;;;;;;;
1471;;;;;;;;;;;;;
1472;;;;;;;;;;;;;
1473;;;;;;;;;;;;;
1474;;;;;;;;;;;;;
1475;;;;;;;;;;;;;
1476;;;;;;;;;;;;;
1477;;;;;;;;;;;;;
1478;;;;;;;;;;;;;
1479;;;;;;;;;;;;;
1480;;;;;;;;;;;;;
1481;;;;;;;;;;;;;
1482;;;;;;;;;;;;;
1483;;;;;;;;;;;;;
1484;;;;;;;;;;;;;
1485;;;;;;;;;;;;;
1486;;;;;;;;;;;;;
1487;;;;;;;;;;;;;
1488;;;;;;;;;;;;;
1489;;;;;;;;;;;;;
1490;;;;;;;;;;;;;
1491;;;;;;;;;;;;;
1492;;;;;;;;;;;;;
1493;;;;;;;;;;;;;
1494;;;;;;;;;;;;;
1495;;;;;;;;;;;;;
1496;;;;;;;;;;;;;
1497;;;;;;;;;;;;;
1498;;;;;;;;;;;;;
1499;;;;;;;;;;;;;
1500;;;;;;;;;;;;;
1501;;;;;;;;;;;;;
1502;;;;;;;;;;;;;
1503;;;;;;;;;;;;;
1504;;;;;;;;;;;;;
1505;;;;;;;;;;;;;
1506;;;;;;;;;;;;;
1507;;;;;;;;;;;;;
1508;;;;;;;;;;;;;
1509;;;;;;;;;;;;;
1510;;;;;;;;;;;;;
1511;;;;;;;;;;;;;
1512;;;;;;;;;;;;;
1513;;;;;;;;;;;;;
1514;;;;;;;;;;;;;
1515;;;;;;;;;;;;;
1516;;;;;;;;;;;;;
1517;;;;;;;;;;;;;
1518;;;;;;;;;;;;;
1519;;;;;;;;;;;;;
1520;;;;;;;;;;;;;
1521;;;;;;;;;;;;;
1522;;;;;;;;;;;;;
1523;;;;;;;;;;;;;
1524;;;;;;;;;;;;;
1525;;;;;;;;;;;;;
1526;;;;;;;;;;;;;
1527;;;;;;;;;;;;;
1528;;;;;;;;;;;;;
1529;;;;;;;;;;;;;
1530;;;;;;;;;;;;;
1531;;;;;;;;;;;;;
1532;;;;;;;;;;;;;
1533;;;;;;;;;;;;;
1534;;;;;;;;;;;;;
1535;;;;;;;;;;;;;
1536;;;;;;;;;;;;;
1537;;;;;;;;;;;;;
1538;;;;;;;;;;;;;
1539;;;;;;;;;;;;;
1540;;;;;;;;;;;;;
1541;;;;;;;;;;;;;
1542;;;;;;;;;;;;;
1543;;;;;;;;;;;;;
1544;;;;;;;;;;;;;
1545;;;;;;;;;;;;;
1546;;;;;;;;;;;;;
1547;;;;;;;;;;;;;
1548;;;;;;;;;;;;;
1549;;;;;;;;;;;;;
1550;;;;;;;;;;;;;
1551;;;;;;;;;;;;;
1552;;;;;;;;;;;;;
1553;;;;;;;;;;;;;
1554;;;;;;;;;;;;;
1555;;;;;;;;;;;;;
1556;;;;;;;;;;;;;
1557;;;;;;;;;;;;;
1558;;;;;;;;;;;;;
1559;;;;;;;;;;;;;
1560;;;;;;;;;;;;;
1561;;;;;;;;;;;;;
1562;;;;;;;;;;;;;
1563;;;;;;;;;;;;;
1564;;;;;;;;;;;;;
1565;;;;;;;;;;;;;
1566;;;;;;;;;;;;;
1567;;;;;;;;;;;;;
1568;;;;;;;;;;;;;
1569;;;;;;;;;;;;;
1570;;;;;;;;;;;;;
1571;;;;;;;;;;;;;
1572;;;;;;;;;;;;;
1573;;;;;;;;;;;;;
1574;;;;;;;;;;;;;
1575;;;;;;;;;;;;;
1576;;;;;;;;;;;;;
1577;;;;;;;;;;;;;
1578;;;;;;;;;;;;;
1579;;;;;;;;;;;;;
1580;;;;;;;;;;;;;
1581;;;;;;;;;;;;;
1582;;;;;;;;;;;;;
1583;;;;;;;;;;;;;
1584;;;;;;;;;;;;;
1585;;;;;;;;;;;;;
1586;;;;;;;;;;;;;
1587;;;;;;;;;;;;;
1588;;;;;;;;;;;;;
1589;;;;;;;;;;;;;
1590;;;;;;;;;;;;;
1591;;;;;;;;;;;;;
1592;;;;;;;;;;;;;
1593;;;;;;;;;;;;;
1594;;;;;;;;;;;;;
1595;;;;;;;;;;;;;
1596;;;;;;;;;;;;;
1597;;;;;;;;;;;;;
1598;;;;;;;;;;;;;
1599;;;;;;;;;;;;;
1600;;;;;;;;;;;;;
1601;;;;;;;;;;;;;
1602;;;;;;;;;;;;;
1603;;;;;;;;;;;;;
1604;;;;;;;;;;;;;
1605;;;;;;;;;;;;;
1606;;;;;;;;;;;;;
1607;;;;;;;;;;;;;
1608;;;;;;;;;;;;;
1609;;;;;;;;;;;;;
1610;;;;;;;;;;;;;
1611;;;;;;;;;;;;;
1612;;;;;;;;;;;;;
1613;;;;;;;;;;;;;
1614;;;;;;;;;;;;;
1615;;;;;;;;;;;;;
1616;;;;;;;;;;;;;
1617;;;;;;;;;;;;;
1618;;;;;;;;;;;;;
1619;;;;;;;;;;;;;
1620;;;;;;;;;;;;;
1621;;;;;;;;;;;;;
1622;;;;;;;;;;;;;
1623;;;;;;;;;;;;;
1624;;;;;;;;;;;;;
1625;;;;;;;;;;;;;
1626;;;;;;;;;;;;;
1627;;;;;;;;;;;;;
1628;;;;;;;;;;;;;
1629;;;;;;;;;;;;;
1630;;;;;;;;;;;;;
1631;;;;;;;;;;;;;
1632;;;;;;;;;;;;;
1633;;;;;;;;;;;;;
1634;;;;;;;;;;;;;
1635;;;;;;;;;;;;;
1636;;;;;;;;;;;;;
1637;;;;;;;;;;;;;
1638;;;;;;;;;;;;;
1639;;;;;;;;;;;;;
1640;;;;;;;;;;;;;
1641;;;;;;;;;;;;;
1642;;;;;;;;;;;;;
1643;;;;;;;;;;;;;
1644;;;;;;;;;;;;;
1645;;;;;;;;;;;;;
1646;;;;;;;;;;;;;
1647;;;;;;;;;;;;;
1648;;;;;;;;;;;;;
1649;;;;;;;;;;;;;
1650;;;;;;;;;;;;;
1651;;;;;;;;;;;;;
1652;;;;;;;;;;;;;
1653;;;;;;;;;;;;;
1654;;;;;;;;;;;;;
1655;;;;;;;;;;;;;
1656;;;;;;;;;;;;;
1657;;;;;;;;;;;;;
1658;;;;;;;;;;;;;
1659;;;;;;;;;;;;;
1660;;;;;;;;;;;;;
1661;;;;;;;;;;;;;
1662;;;;;;;;;;;;;
1663;;;;;;;;;;;;;
1664;;;;;;;;;;;;;
1665;;;;;;;;;;;;;
1666;;;;;;;;;;;;;
1667;;;;;;;;;;;;;
1668;;;;;;;;;;;;;
1669;;;;;;;;;;;;;
1670;;;;;;;;;;;;;
1671;;;;;;;;;;;;;
1672;;;;;;;;;;;;;
1673;;;;;;;;;;;;;
1674;;;;;;;;;;;;;
1675;;;;;;;;;;;;;
1676;;;;;;;;;;;;;
1677;;;;;;;;;;;;;
1678;;;;;;;;;;;;;
1679;;;;;;;;;;;;;
1680;;;;;;;;;;;;;
1681;;;;;;;;;;;;;
1682;;;;;;;;;;;;;
1683;;;;;;;;;;;;;
1684;;;;;;;;;;;;;
1685;;;;;;;;;;;;;
1686;;;;;;;;;;;;;
1687;;;;;;;;;;;;;
1688;;;;;;;;;;;;;
1689;;;;;;;;;;;;;
1690;;;;;;;;;;;;;
1691;;;;;;;;;;;;;
1692;;;;;;;;;;;;;
1693;;;;;;;;;;;;;
1694;;;;;;;;;;;;;
1695;;;;;;;;;;;;;
1696;;;;;;;;;;;;;
1697;;;;;;;;;;;;;
1698;;;;;;;;;;;;;
1699;;;;;;;;;;;;;
1700;;;;;;;;;;;;;
1701;;;;;;;;;;;;;
1702;;;;;;;;;;;;;
1703;;;;;;;;;;;;;
1704;;;;;;;;;;;;;
1705;;;;;;;;;;;;;
1706;;;;;;;;;;;;;
1707;;;;;;;;;;;;;
1708;;;;;;;;;;;;;
1709;;;;;;;;;;;;;
1710;;;;;;;;;;;;;
1711;;;;;;;;;;;;;
1712;;;;;;;;;;;;;
1713;;;;;;;;;;;;;
1714;;;;;;;;;;;;;
1715;;;;;;;;;;;;;
1716;;;;;;;;;;;;;
1717;;;;;;;;;;;;;
1718;;;;;;;;;;;;;
1719;;;;;;;;;;;;;
1720;;;;;;;;;;;;;
1721;;;;;;;;;;;;;
1722;;;;;;;;;;;;;
1723;;;;;;;;;;;;;
1724;;;;;;;;;;;;;
1725;;;;;;;;;;;;;
1726;;;;;;;;;;;;;
1727;;;;;;;;;;;;;
1728;;;;;;;;;;;;;
1729;;;;;;;;;;;;;
1730;;;;;;;;;;;;;
1731;;;;;;;;;;;;;
1732;;;;;;;;;;;;;
1733;;;;;;;;;;;;;
1734;;;;;;;;;;;;;
1735;;;;;;;;;;;;;
1736;;;;;;;;;;;;;
1737;;;;;;;;;;;;;
1738;;;;;;;;;;;;;
1739;;;;;;;;;;;;;
1740;;;;;;;;;;;;;
1741;;;;;;;;;;;;;
1742;;;;;;;;;;;;;
1743;;;;;;;;;;;;;
1744;;;;;;;;;;;;;
1745;;;;;;;;;;;;;
1746;;;;;;;;;;;;;
1747;;;;;;;;;;;;;
1748;;;;;;;;;;;;;
1749;;;;;;;;;;;;;
1750;;;;;;;;;;;;;
1751;;;;;;;;;;;;;
1752;;;;;;;;;;;;;
1753;;;;;;;;;;;;;
1754;;;;;;;;;;;;;
1755;;;;;;;;;;;;;
1756;;;;;;;;;;;;;
1757;;;;;;;;;;;;;
1758;;;;;;;;;;;;;
1759;;;;;;;;;;;;;
1760;;;;;;;;;;;;;
1761;;;;;;;;;;;;;
1762;;;;;;;;;;;;;
1763;;;;;;;;;;;;;
1764;;;;;;;;;;;;;
1765;;;;;;;;;;;;;
1766;;;;;;;;;;;;;
1767;;;;;;;;;;;;;
1768;;;;;;;;;;;;;
1769;;;;;;;;;;;;;
1770;;;;;;;;;;;;;
1771;;;;;;;;;;;;;
1772;;;;;;;;;;;;;
1773;;;;;;;;;;;;;
1774;;;;;;;;;;;;;
1775;;;;;;;;;;;;;
1776;;;;;;;;;;;;;
1777;;;;;;;;;;;;;
1778;;;;;;;;;;;;;
1779;;;;;;;;;;;;;
1780;;;;;;;;;;;;;
1781;;;;;;;;;;;;;
1782;;;;;;;;;;;;;
1783;;;;;;;;;;;;;
1784;;;;;;;;;;;;;
1785;;;;;;;;;;;;;
1786;;;;;;;;;;;;;
1787;;;;;;;;;;;;;
1788;;;;;;;;;;;;;
1789;;;;;;;;;;;;;
1790;;;;;;;;;;;;;
1791;;;;;;;;;;;;;
1792;;;;;;;;;;;;;
1793;;;;;;;;;;;;;
1794;;;;;;;;;;;;;
1795;;;;;;;;;;;;;
1796;;;;;;;;;;;;;
1797;;;;;;;;;;;;;
1798;;;;;;;;;;;;;
1799;;;;;;;;;;;;;
1800;;;;;;;;;;;;;
1801;;;;;;;;;;;;;
1802;;;;;;;;;;;;;
1803;;;;;;;;;;;;;
1804;;;;;;;;;;;;;
1805;;;;;;;;;;;;;
1806;;;;;;;;;;;;;
1807;;;;;;;;;;;;;
1808;;;;;;;;;;;;;
1809;;;;;;;;;;;;;
1810;;;;;;;;;;;;;
1811;;;;;;;;;;;;;
1812;;;;;;;;;;;;;
1813;;;;;;;;;;;;;
1814;;;;;;;;;;;;;
1815;;;;;;;;;;;;;
1816;;;;;;;;;;;;;
1817;;;;;;;;;;;;;
1818;;;;;;;;;;;;;
1819;;;;;;;;;;;;;
1820;;;;;;;;;;;;;
1821;;;;;;;;;;;;;
1822;;;;;;;;;;;;;
1823;;;;;;;;;;;;;
1824;;;;;;;;;;;;;
1825;;;;;;;;;;;;;
1826;;;;;;;;;;;;;
1827;;;;;;;;;;;;;
1828;;;;;;;;;;;;;
1829;;;;;;;;;;;;;
1830;;;;;;;;;;;;;
1831;;;;;;;;;;;;;
1832;;;;;;;;;;;;;
1833;;;;;;;;;;;;;
1834;;;;;;;;;;;;;
1835;;;;;;;;;;;;;
1836;;;;;;;;;;;;;
1837;;;;;;;;;;;;;
1838;;;;;;;;;;;;;
1839;;;;;;;;;;;;;
1840;;;;;;;;;;;;;
1841;;;;;;;;;;;;;
1842;;;;;;;;;;;;;
1843;;;;;;;;;;;;;
1844;;;;;;;;;;;;;
1845;;;;;;;;;;;;;
1846;;;;;;;;;;;;;
1847;;;;;;;;;;;;;
1848;;;;;;;;;;;;;
1849;;;;;;;;;;;;;
1850;;;;;;;;;;;;;
1851;;;;;;;;;;;;;
1852;;;;;;;;;;;;;
1853;;;;;;;;;;;;;
1854;;;;;;;;;;;;;
1855;;;;;;;;;;;;;
1856;;;;;;;;;;;;;
1857;;;;;;;;;;;;;
1858;;;;;;;;;;;;;
1859;;;;;;;;;;;;;
1860;;;;;;;;;;;;;
1861;;;;;;;;;;;;;
1862;;;;;;;;;;;;;
1863;;;;;;;;;;;;;
1864;;;;;;;;;;;;;
1865;;;;;;;;;;;;;
1866;;;;;;;;;;;;;
1867;;;;;;;;;;;;;
1868;;;;;;;;;;;;;
1869;;;;;;;;;;;;;
1870;;;;;;;;;;;;;
1871;;;;;;;;;;;;;
1872;;;;;;;;;;;;;
1873;;;;;;;;;;;;;
1874;;;;;;;;;;;;;
1875;;;;;;;;;;;;;
1876;;;;;;;;;;;;;
1877;;;;;;;;;;;;;
1878;;;;;;;;;;;;;
1879;;;;;;;;;;;;;
1880;;;;;;;;;;;;;
1881;;;;;;;;;;;;;
1882;;;;;;;;;;;;;
1883;;;;;;;;;;;;;
1884;;;;;;;;;;;;;
1885;;;;;;;;;;;;;
1886;;;;;;;;;;;;;
1887;;;;;;;;;;;;;
1888;;;;;;;;;;;;;
1889;;;;;;;;;;;;;
1890;;;;;;;;;;;;;
1891;;;;;;;;;;;;;
1892;;;;;;;;;;;;;
1893;;;;;;;;;;;;;
1894;;;;;;;;;;;;;
1895;;;;;;;;;;;;;
1896;;;;;;;;;;;;;
1897;;;;;;;;;;;;;
1898;;;;;;;;;;;;;
1899;;;;;;;;;;;;;
1900;;;;;;;;;;;;;
1901;;;;;;;;;;;;;
1902;;;;;;;;;;;;;
1903;;;;;;;;;;;;;
1904;;;;;;;;;;;;;
1905;;;;;;;;;;;;;
1906;;;;;;;;;;;;;
1907;;;;;;;;;;;;;
1908;;;;;;;;;;;;;
1909;;;;;;;;;;;;;
1910;;;;;;;;;;;;;
1911;;;;;;;;;;;;;
1912;;;;;;;;;;;;;
1913;;;;;;;;;;;;;
1914;;;;;;;;;;;;;
1915;;;;;;;;;;;;;
1916;;;;;;;;;;;;;
1917;;;;;;;;;;;;;
1918;;;;;;;;;;;;;
1919;;;;;;;;;;;;;
1920;;;;;;;;;;;;;
1921;;;;;;;;;;;;;
1922;;;;;;;;;;;;;
1923;;;;;;;;;;;;;
1924;;;;;;;;;;;;;
1925;;;;;;;;;;;;;
1926;;;;;;;;;;;;;
1927;;;;;;;;;;;;;
1928;;;;;;;;;;;;;
1929;;;;;;;;;;;;;
1930;;;;;;;;;;;;;
1931;;;;;;;;;;;;;
1932;;;;;;;;;;;;;
1933;;;;;;;;;;;;;
1934;;;;;;;;;;;;;
1935;;;;;;;;;;;;;
1936;;;;;;;;;;;;;
1937;;;;;;;;;;;;;
1938;;;;;;;;;;;;;
1939;;;;;;;;;;;;;
1940;;;;;;;;;;;;;
1941;;;;;;;;;;;;;
1942;;;;;;;;;;;;;
1943;;;;;;;;;;;;;
1944;;;;;;;;;;;;;
1945;;;;;;;;;;;;;
1946;;;;;;;;;;;;;
1947;;;;;;;;;;;;;
1948;;;;;;;;;;;;;
1949;;;;;;;;;;;;;
1950;;;;;;;;;;;;;
1951;;;;;;;;;;;;;
1952;;;;;;;;;;;;;
1953;;;;;;;;;;;;;
1954;;;;;;;;;;;;;
1955;;;;;;;;;;;;;
1956;;;;;;;;;;;;;
1957;;;;;;;;;;;;;
1958;;;;;;;;;;;;;
1959;;;;;;;;;;;;;
1960;;;;;;;;;;;;;
1961;;;;;;;;;;;;;
1962;;;;;;;;;;;;;
1963;;;;;;;;;;;;;
1964;;;;;;;;;;;;;
1965;;;;;;;;;;;;;
1966;;;;;;;;;;;;;
1967;;;;;;;;;;;;;
1968;;;;;;;;;;;;;
1969;;;;;;;;;;;;;
1970;;;;;;;;;;;;;
1971;;;;;;;;;;;;;
1972;;;;;;;;;;;;;
1973;;;;;;;;;;;;;
1974;;;;;;;;;;;;;
1975;;;;;;;;;;;;;
1976;;;;;;;;;;;;;
1977;;;;;;;;;;;;;
1978;;;;;;;;;;;;;
1979;;;;;;;;;;;;;
1980;;;;;;;;;;;;;
1981;;;;;;;;;;;;;
1982;;;;;;;;;;;;;
1983;;;;;;;;;;;;;
1984;;;;;;;;;;;;;
1985;;;;;;;;;;;;;
1986;;;;;;;;;;;;;
1987;;;;;;;;;;;;;
1988;;;;;;;;;;;;;
1989;;;;;;;;;;;;;
1990;;;;;;;;;;;;;
1991;;;;;;;;;;;;;
1992;;;;;;;;;;;;;
1993;;;;;;;;;;;;;
1994;;;;;;;;;;;;;
1995;;;;;;;;;;;;;
1996;;;;;;;;;;;;;
1997;;;;;;;;;;;;;
1998;;;;;;;;;;;;;
1999;;;;;;;;;;;;;
2000;;;;;;;;;;;;;
2001;;;;;;;;;;;;;
2002;;;;;;;;;;;;;
2003;;;;;;;;;;;;;
2004;;;;;;;;;;;;;
2005;;;;;;;;;;;;;
2006;;;;;;;;;;;;;
2007;;;;;;;;;;;;;
2008;;;;;;;;;;;;;
2009;;;;;;;;;;;;;
2010;;;;;;;;;;;;;
2011;;;;;;;;;;;;;
2012;;;;;;;;;;;;;
2013;;;;;;;;;;;;;
2014;;;;;;;;;;;;;
2015;;;;;;;;;;;;;
2016;;;;;;;;;;;;;
2017;;;;;;;;;;;;;
2018;;;;;;;;;;;;;
2019;;;;;;;;;;;;;
2020;;;;;;;;;;;;;
2021;;;;;;;;;;;;;
2022;;;;;;;;;;;;;
2023;;;;;;;;;;;;;
2024;;;;;;;;;;;;;
2025;;;;;;;;;;;;;
2026;;;;;;;;;;;;;
2027;;;;;;;;;;;;;
2028;;;;;;;;;;;;;
2029;;;;;;;;;;;;;
2030;;;;;;;;;;;;;
2031;;;;;;;;;;;;;
2032;;;;;;;;;;;;;
2033;;;;;;;;;;;;;
2034;;;;;;;;;;;;;
2035;;;;;;;;;;;;;
2036;;;;;;;;;;;;;
2037;;;;;;;;;;;;;
2038;;;;;;;;;;;;;
2039;;;;;;;;;;;;;
2040;;;;;;;;;;;;;
2041;;;;;;;;;;;;;
2042;;;;;;;;;;;;;
2043;;;;;;;;;;;;;
2044;;;;;;;;;;;;;
2045;;;;;;;;;;;;;
2046;;;;;;;;;;;;;
2047;;;;;;;;;;;;;
2048;;;;;;;;;;;;;
2049;;;;;;;;;;;;;
2050;;;;;;;;;;;;;
2051;;;;;;;;;;;;;
2052;;;;;;;;;;;;;
2053;;;;;;;;;;;;;
2054;;;;;;;;;;;;;
2055;;;;;;;;;;;;;
2056;;;;;;;;;;;;;
2057;;;;;;;;;;;;;
2058;;;;;;;;;;;;;
2059;;;;;;;;;;;;;
2060;;;;;;;;;;;;;
2061;;;;;;;;;;;;;
2062;;;;;;;;;;;;;
2063;;;;;;;;;;;;;
2064;;;;;;;;;;;;;
2065;;;;;;;;;;;;;
2066;;;;;;;;;;;;;
2067;;;;;;;;;;;;;
2068;;;;;;;;;;;;;
2069;;;;;;;;;;;;;
2070;;;;;;;;;;;;;
2071;;;;;;;;;;;;;
2072;;;;;;;;;;;;;
2073;;;;;;;;;;;;;
2074;;;;;;;;;;;;;
2075;;;;;;;;;;;;;
2076;;;;;;;;;;;;;
2077;;;;;;;;;;;;;
2078;;;;;;;;;;;;;
2079;;;;;;;;;;;;;
2080;;;;;;;;;;;;;
2081;;;;;;;;;;;;;
2082;;;;;;;;;;;;;
2083;;;;;;;;;;;;;
2084;;;;;;;;;;;;;
2085;;;;;;;;;;;;;
2086;;;;;;;;;;;;;
2087;;;;;;;;;;;;;
2088;;;;;;;;;;;;;
2089;;;;;;;;;;;;;
2090;;;;;;;;;;;;;
2091;;;;;;;;;;;;;
2092;;;;;;;;;;;;;
2093;;;;;;;;;;;;;
2094;;;;;;;;;;;;;
2095;;;;;;;;;;;;;
2096;;;;;;;;;;;;;
2097;;;;;;;;;;;;;
2098;;;;;;;;;;;;;
2099;;;;;;;;;;;;;
2100;;;;;;;;;;;;;
2101;;;;;;;;;;;;;
2102;;;;;;;;;;;;;
2103;;;;;;;;;;;;;
2104;;;;;;;;;;;;;
2105;;;;;;;;;;;;;
2106;;;;;;;;;;;;;
2107;;;;;;;;;;;;;
2108;;;;;;;;;;;;;
2109;;;;;;;;;;;;;
2110;;;;;;;;;;;;;
2111;;;;;;;;;;;;;
2112;;;;;;;;;;;;;
2113;;;;;;;;;;;;;
2114;;;;;;;;;;;;;
2115;;;;;;;;;;;;;
2116;;;;;;;;;;;;;
2117;;;;;;;;;;;;;
2118;;;;;;;;;;;;;
2119;;;;;;;;;;;;;
2120;;;;;;;;;;;;;
2121;;;;;;;;;;;;;
2122;;;;;;;;;;;;;
2123;;;;;;;;;;;;;
2124;;;;;;;;;;;;;
2125;;;;;;;;;;;;;
2126;;;;;;;;;;;;;
2127;;;;;;;;;;;;;
2128;;;;;;;;;;;;;
2129;;;;;;;;;;;;;
2130;;;;;;;;;;;;;
2131;;;;;;;;;;;;;
2132;;;;;;;;;;;;;
2133;;;;;;;;;;;;;
2134;;;;;;;;;;;;;
2135;;;;;;;;;;;;;
2136;;;;;;;;;;;;;
2137;;;;;;;;;;;;;
2138;;;;;;;;;;;;;
2139;;;;;;;;;;;;;
2140;;;;;;;;;;;;;
2141;;;;;;;;;;;;;
2142;;;;;;;;;;;;;
2143;;;;;;;;;;;;;
2144;;;;;;;;;;;;;
2145;;;;;;;;;;;;;
2146;;;;;;;;;;;;;
2147;;;;;;;;;;;;;
2148;;;;;;;;;;;;;
2149;;;;;;;;;;;;;
2150;;;;;;;;;;;;;
2151;;;;;;;;;;;;;
2152;;;;;;;;;;;;;
2153;;;;;;;;;;;;;
2154;;;;;;;;;;;;;
2155;;;;;;;;;;;;;
2156;;;;;;;;;;;;;
2157;;;;;;;;;;;;;
2158;;;;;;;;;;;;;
2159;;;;;;;;;;;;;
2160;;;;;;;;;;;;;
2161;;;;;;;;;;;;;
2162;;;;;;;;;;;;;
2163;;;;;;;;;;;;;
2164;;;;;;;;;;;;;
2165;;;;;;;;;;;;;
2166;;;;;;;;;;;;;
2167;;;;;;;;;;;;;
2168;;;;;;;;;;;;;
2169;;;;;;;;;;;;;
2170;;;;;;;;;;;;;
2171;;;;;;;;;;;;;
2172;;;;;;;;;;;;;
2173;;;;;;;;;;;;;
2174;;;;;;;;;;;;;
2175;;;;;;;;;;;;;
2176;;;;;;;;;;;;;
2177;;;;;;;;;;;;;
2178;;;;;;;;;;;;;
2179;;;;;;;;;;;;;
2180;;;;;;;;;;;;;
2181;;;;;;;;;;;;;
2182;;;;;;;;;;;;;
2183;;;;;;;;;;;;;
2184;;;;;;;;;;;;;
2185;;;;;;;;;;;;;
2186;;;;;;;;;;;;;
2187;;;;;;;;;;;;;
2188;;;;;;;;;;;;;
2189;;;;;;;;;;;;;
2190;;;;;;;;;;;;;
2191;;;;;;;;;;;;;
2192;;;;;;;;;;;;;
2193;;;;;;;;;;;;;
2194;;;;;;;;;;;;;
2195;;;;;;;;;;;;;
2196;;;;;;;;;;;;;
2197;;;;;;;;;;;;;
2198;;;;;;;;;;;;;
2199;;;;;;;;;;;;;
2200;;;;;;;;;;;;;
2201;;;;;;;;;;;;;
2202;;;;;;;;;;;;;
2203;;;;;;;;;;;;;
2204;;;;;;;;;;;;;
2205;;;;;;;;;;;;;
2206;;;;;;;;;;;;;
2207;;;;;;;;;;;;;
2208;;;;;;;;;;;;;
2209;;;;;;;;;;;;;
2210;;;;;;;;;;;;;
2211;;;;;;;;;;;;;
2212;;;;;;;;;;;;;
2213;;;;;;;;;;;;;
2214;;;;;;;;;;;;;
2215;;;;;;;;;;;;;
2216;;;;;;;;;;;;;
2217;;;;;;;;;;;;;
2218;;;;;;;;;;;;;
2219;;;;;;;;;;;;;
2220;;;;;;;;;;;;;
2221;;;;;;;;;;;;;
2222;;;;;;;;;;;;;
2223;;;;;;;;;;;;;
2224;;;;;;;;;;;;;
2225;;;;;;;;;;;;;
2226;;;;;;;;;;;;;
2227;;;;;;;;;;;;;
2228;;;;;;;;;;;;;
2229;;;;;;;;;;;;;
2230;;;;;;;;;;;;;
2231;;;;;;;;;;;;;
2232;;;;;;;;;;;;;
2233;;;;;;;;;;;;;
2234;;;;;;;;;;;;;
2235;;;;;;;;;;;;;
2236;;;;;;;;;;;;;
2237;;;;;;;;;;;;;
2238;;;;;;;;;;;;;
2239;;;;;;;;;;;;;
2240;;;;;;;;;;;;;
2241;;;;;;;;;;;;;
2242;;;;;;;;;;;;;
2243;;;;;;;;;;;;;
2244;;;;;;;;;;;;;
2245;;;;;;;;;;;;;
2246;;;;;;;;;;;;;
2247;;;;;;;;;;;;;
2248;;;;;;;;;;;;;
2249;;;;;;;;;;;;;
2250;;;;;;;;;;;;;
2251;;;;;;;;;;;;;
2252;;;;;;;;;;;;;
2253;;;;;;;;;;;;;
2254;;;;;;;;;;;;;
2255;;;;;;;;;;;;;
2256;;;;;;;;;;;;;
2257;;;;;;;;;;;;;
2258;;;;;;;;;;;;;
2259;;;;;;;;;;;;;
2260;;;;;;;;;;;;;
2261;;;;;;;;;;;;;
2262;;;;;;;;;;;;;
2263;;;;;;;;;;;;;
2264;;;;;;;;;;;;;
2265;;;;;;;;;;;;;
2266;;;;;;;;;;;;;
2267;;;;;;;;;;;;;
2268;;;;;;;;;;;;;
2269;;;;;;;;;;;;;
2270;;;;;;;;;;;;;
2271;;;;;;;;;;;;;
2272;;;;;;;;;;;;;
2273;;;;;;;;;;;;;
2274;;;;;;;;;;;;;
2275;;;;;;;;;;;;;
2276;;;;;;;;;;;;;
2277;;;;;;;;;;;;;
2278;;;;;;;;;;;;;
2279;;;;;;;;;;;;;
2280;;;;;;;;;;;;;
2281;;;;;;;;;;;;;
2282;;;;;;;;;;;;;
2283;;;;;;;;;;;;;
2284;;;;;;;;;;;;;
2285;;;;;;;;;;;;;
2286;;;;;;;;;;;;;
2287;;;;;;;;;;;;;
2288;;;;;;;;;;;;;
2289;;;;;;;;;;;;;
2290;;;;;;;;;;;;;
2291;;;;;;;;;;;;;
2292;;;;;;;;;;;;;
2293;;;;;;;;;;;;;
2294;;;;;;;;;;;;;
2295;;;;;;;;;;;;;
2296;;;;;;;;;;;;;
2297;;;;;;;;;;;;;
2298;;;;;;;;;;;;;
2299;;;;;;;;;;;;;
2300;;;;;;;;;;;;;
2301;;;;;;;;;;;;;
2302;;;;;;;;;;;;;
2303;;;;;;;;;;;;;
2304;;;;;;;;;;;;;
2305;;;;;;;;;;;;;
2306;;;;;;;;;;;;;
2307;;;;;;;;;;;;;
2308;;;;;;;;;;;;;
2309;;;;;;;;;;;;;
2310;;;;;;;;;;;;;
2311;;;;;;;;;;;;;
2312;;;;;;;;;;;;;
2313;;;;;;;;;;;;;
2314;;;;;;;;;;;;;
2315;;;;;;;;;;;;;
2316;;;;;;;;;;;;;
2317;;;;;;;;;;;;;
2318;;;;;;;;;;;;;
2319;;;;;;;;;;;;;
2320;;;;;;;;;;;;;
2321;;;;;;;;;;;;;
2322;;;;;;;;;;;;;
2323;;;;;;;;;;;;;
2324;;;;;;;;;;;;;
2325;;;;;;;;;;;;;
2326;;;;;;;;;;;;;
2327;;;;;;;;;;;;;
2328;;;;;;;;;;;;;
2329;;;;;;;;;;;;;
2330;;;;;;;;;;;;;
2331;;;;;;;;;;;;;
2332;;;;;;;;;;;;;
2333;;;;;;;;;;;;;
2334;;;;;;;;;;;;;
2335;;;;;;;;;;;;;
2336;;;;;;;;;;;;;
2337;;;;;;;;;;;;;
2338;;;;;;;;;;;;;
2339;;;;;;;;;;;;;
2340;;;;;;;;;;;;;
2341;;;;;;;;;;;;;
2342;;;;;;;;;;;;;
2343;;;;;;;;;;;;;
2344;;;;;;;;;;;;;
2345;;;;;;;;;;;;;
2346;;;;;;;;;;;;;
2347;;;;;;;;;;;;;
2348;;;;;;;;;;;;;
2349;;;;;;;;;;;;;
2350;;;;;;;;;;;;;
2351;;;;;;;;;;;;;
2352;;;;;;;;;;;;;
2353;;;;;;;;;;;;;
2354;;;;;;;;;;;;;
2355;;;;;;;;;;;;;
2356;;;;;;;;;;;;;
2357;;;;;;;;;;;;;
2358;;;;;;;;;;;;;
2359;;;;;;;;;;;;;
2360;;;;;;;;;;;;;
2361;;;;;;;;;;;;;
2362;;;;;;;;;;;;;
2363;;;;;;;;;;;;;
2364;;;;;;;;;;;;;
2365;;;;;;;;;;;;;
2366;;;;;;;;;;;;;
2367;;;;;;;;;;;;;
2368;;;;;;;;;;;;;
2369;;;;;;;;;;;;;
2370;;;;;;;;;;;;;
2371;;;;;;;;;;;;;
2372;;;;;;;;;;;;;
2373;;;;;;;;;;;;;
2374;;;;;;;;;;;;;
2375;;;;;;;;;;;;;
2376;;;;;;;;;;;;;
2377;;;;;;;;;;;;;
2378;;;;;;;;;;;;;
2379;;;;;;;;;;;;;
2380;;;;;;;;;;;;;
2381;;;;;;;;;;;;;
2382;;;;;;;;;;;;;
2383;;;;;;;;;;;;;
2384;;;;;;;;;;;;;
2385;;;;;;;;;;;;;
2386;;;;;;;;;;;;;
2387;;;;;;;;;;;;;
2388;;;;;;;;;;;;;
2389;;;;;;;;;;;;;
2390;;;;;;;;;;;;;
2391;;;;;;;;;;;;;
2392;;;;;;;;;;;;;
2393;;;;;;;;;;;;;
2394;;;;;;;;;;;;;
2395;;;;;;;;;;;;;
2396;;;;;;;;;;;;;
2397;;;;;;;;;;;;;
2398;;;;;;;;;;;;;
2399;;;;;;;;;;;;;
2400;;;;;;;;;;;;;
2401;;;;;;;;;;;;;
2402;;;;;;;;;;;;;
2403;;;;;;;;;;;;;
2404;;;;;;;;;;;;;
2405;;;;;;;;;;;;;
2406;;;;;;;;;;;;;
2407;;;;;;;;;;;;;
2408;;;;;;;;;;;;;
2409;;;;;;;;;;;;;
2410;;;;;;;;;;;;;
2411;;;;;;;;;;;;;
2412;;;;;;;;;;;;;
2413;;;;;;;;;;;;;
2414;;;;;;;;;;;;;
2415;;;;;;;;;;;;;
2416;;;;;;;;;;;;;
2417;;;;;;;;;;;;;
2418;;;;;;;;;;;;;
2419;;;;;;;;;;;;;
2420;;;;;;;;;;;;;
2421;;;;;;;;;;;;;
2422;;;;;;;;;;;;;
2423;;;;;;;;;;;;;
2424;;;;;;;;;;;;;
2425;;;;;;;;;;;;;
2426;;;;;;;;;;;;;
2427;;;;;;;;;;;;;
2428;;;;;;;;;;;;;
2429;;;;;;;;;;;;;
2430;;;;;;;;;;;;;
2431;;;;;;;;;;;;;
2432;;;;;;;;;;;;;
2433;;;;;;;;;;;;;
2434;;;;;;;;;;;;;
2435;;;;;;;;;;;;;
2436;;;;;;;;;;;;;
2437;;;;;;;;;;;;;
2438;;;;;;;;;;;;;
2439;;;;;;;;;;;;;
2440;;;;;;;;;;;;;
2441;;;;;;;;;;;;;
2442;;;;;;;;;;;;;
2443;;;;;;;;;;;;;
2444;;;;;;;;;;;;;
2445;;;;;;;;;;;;;
2446;;;;;;;;;;;;;
2447;;;;;;;;;;;;;
2448;;;;;;;;;;;;;
2449;;;;;;;;;;;;;
2450;;;;;;;;;;;;;
2451;;;;;;;;;;;;;
2452;;;;;;;;;;;;;
2453;;;;;;;;;;;;;
2454;;;;;;;;;;;;;
2455;;;;;;;;;;;;;
2456;;;;;;;;;;;;;
2457;;;;;;;;;;;;;
2458;;;;;;;;;;;;;
2459;;;;;;;;;;;;;
2460;;;;;;;;;;;;;
2461;;;;;;;;;;;;;
2462;;;;;;;;;;;;;
2463;;;;;;;;;;;;;
2464;;;;;;;;;;;;;
2465;;;;;;;;;;;;;
2466;;;;;;;;;;;;;
2467;;;;;;;;;;;;;
2468;;;;;;;;;;;;;
2469;;;;;;;;;;;;;
2470;;;;;;;;;;;;;
2471;;;;;;;;;;;;;
2472;;;;;;;;;;;;;
2473;;;;;;;;;;;;;
2474;;;;;;;;;;;;;
2475;;;;;;;;;;;;;
2476;;;;;;;;;;;;;
2477;;;;;;;;;;;;;
2478;;;;;;;;;;;;;
2479;;;;;;;;;;;;;
2480;;;;;;;;;;;;;
2481;;;;;;;;;;;;;
2482;;;;;;;;;;;;;
2483;;;;;;;;;;;;;
2484;;;;;;;;;;;;;
2485;;;;;;;;;;;;;
2486;;;;;;;;;;;;;
2487;;;;;;;;;;;;;
2488;;;;;;;;;;;;;
2489;;;;;;;;;;;;;
2490;;;;;;;;;;;;;
2491;;;;;;;;;;;;;
2492;;;;;;;;;;;;;
2493;;;;;;;;;;;;;
2494;;;;;;;;;;;;;
2495;;;;;;;;;;;;;
