
Index;Column 2 (V);Column 3 (V);Column 4 (V);Column 5 (V);Column 6 (V/s);Column 7 (V);Time (s);Potential applied (V);WE(1).Current (A);WE(1).Potential (V);Scan;Column 13 (RPM);ω (rad/s)
1;0;0.01;-1;-0.01;0.01;-0.00244;18417.8455794994;-0.0146484375;6.005859375E-07;-0.014361572265625;3;2000;209.43951023932
2;;;;;;;18418.0897204988;-0.01708984375;5.28564453125E-07;-0.0169219970703125;3;;
3;;;;;;;18418.3338614982;-0.01953125;4.4342041015625E-07;-0.0192169189453125;3;;
4;;;;;;;18418.5780024976;-0.02197265625;3.8421630859375E-07;-0.02169189453125;3;;
5;;;;;;;18418.8221434969;-0.0244140625;2.801513671875E-07;-0.0240936279296875;3;;
6;;;;;;;18419.0662844963;-0.02685546875;2.0721435546875E-07;-0.0266143798828125;3;;
7;;;;;;;18419.3104254957;-0.029296875;1.336669921875E-07;-0.0290008544921875;3;;
8;;;;;;;18419.5545664951;-0.03173828125;7.293701171875E-08;-0.0313751220703125;3;;
9;;;;;;;18419.7987074945;-0.0341796875;-4.8828125E-09;-0.033856201171875;3;;
10;;;;;;;18420.0428484939;-0.03662109375;-4.119873046875E-08;-0.0362884521484375;3;;
11;;;;;;;18420.2869894932;-0.0390625;-1.165771484375E-07;-0.0387847900390625;3;;
12;;;;;;;18420.5311304926;-0.04150390625;-1.7120361328125E-07;-0.0411102294921875;3;;
13;;;;;;;18420.775271492;-0.0439453125;-2.8900146484375E-07;-0.04356689453125;3;;
14;;;;;;;18421.0194124914;-0.04638671875;-3.216552734375E-07;-0.0460113525390625;3;;
15;;;;;;;18421.2635534908;-0.048828125;-3.9093017578125E-07;-0.048431396484375;3;;
16;;;;;;;18421.5076944902;-0.05126953125;-4.4647216796875E-07;-0.050994873046875;3;;
17;;;;;;;18421.7518354895;-0.0537109375;-5.181884765625E-07;-0.05340576171875;3;;
18;;;;;;;18421.9959764889;-0.05615234375;-5.79833984375E-07;-0.0557861328125;3;;
19;;;;;;;18422.2401174883;-0.05859375;-6.6802978515625E-07;-0.058319091796875;3;;
20;;;;;;;18422.4842584877;-0.06103515625;-7.3150634765625E-07;-0.060699462890625;3;;
21;;;;;;;18422.7283994871;-0.0634765625;-8.2305908203125E-07;-0.063262939453125;3;;
22;;;;;;;18422.9725404865;-0.06591796875;-9.08203125E-07;-0.06549072265625;3;;
23;;;;;;;18423.2166814859;-0.068359375;-9.5703125E-07;-0.067962646484375;3;;
24;;;;;;;18423.4608224852;-0.07080078125;-1.064453125E-06;-0.07049560546875;3;;
25;;;;;;;18423.7049634846;-0.0732421875;-1.11480712890625E-06;-0.072845458984375;3;;
26;;;;;;;18423.949104484;-0.07568359375;-1.2384033203125E-06;-0.075286865234375;3;;
27;;;;;;;18424.1932454834;-0.078125;-1.3250732421875E-06;-0.077606201171875;3;;
28;;;;;;;18424.4373864828;-0.08056640625;-1.41754150390625E-06;-0.080108642578125;3;;
29;;;;;;;18424.6815274821;-0.0830078125;-1.51123046875E-06;-0.08233642578125;3;;
30;;;;;;;18424.9256684815;-0.08544921875;-1.63665771484375E-06;-0.0849609375;3;;
31;;;;;;;18425.1698094809;-0.087890625;-1.7498779296875E-06;-0.08740234375;3;;
32;;;;;;;18425.4139504803;-0.09033203125;-1.873779296875E-06;-0.089752197265625;3;;
33;;;;;;;18425.6580914797;-0.0927734375;-2.0184326171875E-06;-0.092193603515625;3;;
34;;;;;;;18425.9022324791;-0.09521484375;-2.1380615234375E-06;-0.09466552734375;3;;
35;;;;;;;18426.1463734785;-0.09765625;-2.3114013671875E-06;-0.097076416015625;3;;
36;;;;;;;18426.3905144778;-0.10009765625;-2.4261474609375E-06;-0.099395751953125;3;;
37;;;;;;;18426.6346554772;-0.1025390625;-2.61138916015625E-06;-0.101898193359375;3;;
38;;;;;;;18426.8787964766;-0.10498046875;-2.78106689453125E-06;-0.104248046875;3;;
39;;;;;;;18427.122937476;-0.107421875;-2.9681396484375E-06;-0.106658935546875;3;;
40;;;;;;;18427.3670784754;-0.10986328125;-3.17901611328125E-06;-0.109130859375;3;;
41;;;;;;;18427.6112194748;-0.1123046875;-3.41064453125E-06;-0.1119384765625;3;;
42;;;;;;;18427.8553604741;-0.11474609375;-3.6346435546875E-06;-0.114349365234375;3;;
43;;;;;;;18428.0995014735;-0.1171875;-3.8726806640625E-06;-0.116790771484375;3;;
44;;;;;;;18428.3436424729;-0.11962890625;-4.119873046875E-06;-0.119140625;3;;
45;;;;;;;18428.5877834723;-0.1220703125;-4.3914794921875E-06;-0.12164306640625;3;;
46;;;;;;;18428.8319244717;-0.12451171875;-4.6783447265625E-06;-0.124053955078125;3;;
47;;;;;;;18429.0760654711;-0.126953125;-4.99267578125E-06;-0.126556396484375;3;;
48;;;;;;;18429.3202064704;-0.12939453125;-5.3497314453125E-06;-0.128936767578125;3;;
49;;;;;;;18429.5643474698;-0.1318359375;-5.6640625E-06;-0.13134765625;3;;
50;;;;;;;18429.8084884692;-0.13427734375;-6.0394287109375E-06;-0.13385009765625;3;;
51;;;;;;;18430.0526294686;-0.13671875;-6.4544677734375E-06;-0.136199951171875;3;;
52;;;;;;;18430.296770468;-0.13916015625;-6.8878173828125E-06;-0.138641357421875;3;;
53;;;;;;;18430.5409114674;-0.1416015625;-7.36083984375E-06;-0.14111328125;3;;
54;;;;;;;18430.7850524667;-0.14404296875;-7.8369140625E-06;-0.143524169921875;3;;
55;;;;;;;18431.0291934661;-0.146484375;-8.3648681640625E-06;-0.14599609375;3;;
56;;;;;;;18431.2733344655;-0.14892578125;-8.929443359375E-06;-0.1484375;3;;
57;;;;;;;18431.5174754649;-0.1513671875;-9.5062255859375E-06;-0.150909423828125;3;;
58;;;;;;;18431.7616164643;-0.15380859375;-1.01470947265625E-05;-0.153289794921875;3;;
59;;;;;;;18432.0057574637;-0.15625;-1.08245849609375E-05;-0.15570068359375;3;;
60;;;;;;;18432.249898463;-0.15869140625;-1.15203857421875E-05;-0.1580810546875;3;;
61;;;;;;;18432.4940394624;-0.1611328125;-1.22802734375E-05;-0.160552978515625;3;;
62;;;;;;;18432.7381804618;-0.16357421875;-1.30706787109375E-05;-0.1629638671875;3;;
63;;;;;;;18432.9823214612;-0.166015625;-1.39190673828125E-05;-0.165374755859375;3;;
64;;;;;;;18433.2264624606;-0.16845703125;-1.48345947265625E-05;-0.16790771484375;3;;
65;;;;;;;18433.47060346;-0.1708984375;-1.57928466796875E-05;-0.1702880859375;3;;
66;;;;;;;18433.7147444593;-0.17333984375;-1.6839599609375E-05;-0.17266845703125;3;;
67;;;;;;;18433.9588854587;-0.17578125;-1.79718017578125E-05;-0.175140380859375;3;;
68;;;;;;;18434.2030264581;-0.17822265625;-1.907958984375E-05;-0.177490234375;3;;
69;;;;;;;18434.4471674575;-0.1806640625;-2.0318603515625E-05;-0.17999267578125;3;;
70;;;;;;;18434.6913084569;-0.18310546875;-2.16278076171875E-05;-0.182373046875;3;;
71;;;;;;;18434.9354494563;-0.185546875;-2.30377197265625E-05;-0.184814453125;3;;
72;;;;;;;18435.1795904556;-0.18798828125;-2.4554443359375E-05;-0.1871337890625;3;;
73;;;;;;;18435.423731455;-0.1904296875;-2.61627197265625E-05;-0.189544677734375;3;;
74;;;;;;;18435.6678724544;-0.19287109375;-2.7813720703125E-05;-0.1920166015625;3;;
75;;;;;;;18435.9120134538;-0.1953125;-2.96142578125E-05;-0.19451904296875;3;;
76;;;;;;;18436.1561544532;-0.19775390625;-3.14697265625E-05;-0.19677734375;3;;
77;;;;;;;18436.4002954526;-0.2001953125;-3.348388671875E-05;-0.19964599609375;3;;
78;;;;;;;18436.6444364519;-0.20263671875;-3.564453125E-05;-0.201995849609375;3;;
79;;;;;;;18436.8885774513;-0.205078125;-3.8006591796875E-05;-0.204498291015625;3;;
80;;;;;;;18437.1327184507;-0.20751953125;-4.0472412109375E-05;-0.206878662109375;3;;
81;;;;;;;18437.3768594501;-0.2099609375;-4.30572509765625E-05;-0.2093505859375;3;;
82;;;;;;;18437.6210004495;-0.21240234375;-4.5806884765625E-05;-0.211822509765625;3;;
83;;;;;;;18437.8651414489;-0.21484375;-4.87060546875E-05;-0.214202880859375;3;;
84;;;;;;;18438.1092824482;-0.21728515625;-5.1788330078125E-05;-0.2166748046875;3;;
85;;;;;;;18438.3534234476;-0.2197265625;-5.5145263671875E-05;-0.2191162109375;3;;
86;;;;;;;18438.597564447;-0.22216796875;-5.8746337890625E-05;-0.221527099609375;3;;
87;;;;;;;18438.8417054464;-0.224609375;-6.256103515625E-05;-0.223968505859375;3;;
88;;;;;;;18439.0858464458;-0.22705078125;-6.65283203125E-05;-0.22637939453125;3;;
89;;;;;;;18439.3299874452;-0.2294921875;-7.073974609375E-05;-0.22882080078125;3;;
90;;;;;;;18439.5741284446;-0.23193359375;-7.5286865234375E-05;-0.231231689453125;3;;
91;;;;;;;18439.8182694439;-0.234375;-8.0108642578125E-05;-0.233734130859375;3;;
92;;;;;;;18440.0624104433;-0.23681640625;-8.526611328125E-05;-0.23614501953125;3;;
93;;;;;;;18440.3065514427;-0.2392578125;-9.075927734375E-05;-0.23858642578125;3;;
94;;;;;;;18440.5506924421;-0.24169921875;-9.65576171875E-05;-0.241058349609375;3;;
95;;;;;;;18440.7948334415;-0.244140625;-0.000102691650390625;-0.243438720703125;3;;
96;;;;;;;18441.0389744409;-0.24658203125;-0.000109130859375;-0.245880126953125;3;;
97;;;;;;;18441.2831154402;-0.2490234375;-0.000115966796875;-0.248291015625;3;;
98;;;;;;;18441.5272564396;-0.25146484375;-0.000123260498046875;-0.25079345703125;3;;
99;;;;;;;18441.771397439;-0.25390625;-0.00013104248046875;-0.253143310546875;3;;
100;;;;;;;18442.0155384384;-0.25634765625;-0.0001392822265625;-0.255584716796875;3;;
101;;;;;;;18442.2596794378;-0.2587890625;-0.000147979736328125;-0.258056640625;3;;
102;;;;;;;18442.5038204372;-0.26123046875;-0.000156890869140625;-0.26043701171875;3;;
103;;;;;;;18442.7479614365;-0.263671875;-0.000166534423828125;-0.262939453125;3;;
104;;;;;;;18442.9921024359;-0.26611328125;-0.00017645263671875;-0.265228271484375;3;;
105;;;;;;;18443.2362434353;-0.2685546875;-0.000186981201171875;-0.267730712890625;3;;
106;;;;;;;18443.4803844347;-0.27099609375;-0.0001981201171875;-0.2701416015625;3;;
107;;;;;;;18443.7245254341;-0.2734375;-0.000209930419921875;-0.272552490234375;3;;
108;;;;;;;18443.9686664335;-0.27587890625;-0.000222076416015625;-0.274932861328125;3;;
109;;;;;;;18444.2128074328;-0.2783203125;-0.000234771728515625;-0.277374267578125;3;;
110;;;;;;;18444.4569484322;-0.28076171875;-0.00024774169921875;-0.279815673828125;3;;
111;;;;;;;18444.7010894316;-0.283203125;-0.00026129150390625;-0.282196044921875;3;;
112;;;;;;;18444.945230431;-0.28564453125;-0.000275482177734375;-0.284637451171875;3;;
113;;;;;;;18445.1893714304;-0.2880859375;-0.00029034423828125;-0.28704833984375;3;;
114;;;;;;;18445.4335124298;-0.29052734375;-0.00030584716796875;-0.289459228515625;3;;
115;;;;;;;18445.6776534291;-0.29296875;-0.000321868896484375;-0.292266845703125;3;;
116;;;;;;;18445.9217944285;-0.29541015625;-0.000338134765625;-0.29473876953125;3;;
117;;;;;;;18446.1659354279;-0.2978515625;-0.000354644775390625;-0.297088623046875;3;;
118;;;;;;;18446.4100764273;-0.30029296875;-0.000371551513671875;-0.299591064453125;3;;
119;;;;;;;18446.6542174267;-0.302734375;-0.0003890380859375;-0.301971435546875;3;;
120;;;;;;;18446.8983584261;-0.30517578125;-0.000407196044921875;-0.304443359375;3;;
121;;;;;;;18447.1424994254;-0.3076171875;-0.000425872802734375;-0.30682373046875;3;;
122;;;;;;;18447.3866404248;-0.31005859375;-0.000444854736328125;-0.309234619140625;3;;
123;;;;;;;18447.6307814242;-0.3125;-0.00046392822265625;-0.31170654296875;3;;
124;;;;;;;18447.8749224236;-0.31494140625;-0.0004830322265625;-0.314208984375;3;;
125;;;;;;;18448.119063423;-0.3173828125;-0.00050201416015625;-0.316558837890625;3;;
126;;;;;;;18448.3632044224;-0.31982421875;-0.0005218505859375;-0.319061279296875;3;;
127;;;;;;;18448.6073454217;-0.322265625;-0.0005419921875;-0.321502685546875;3;;
128;;;;;;;18448.8514864211;-0.32470703125;-0.000562744140625;-0.323944091796875;3;;
129;;;;;;;18449.0956274205;-0.3271484375;-0.00058319091796875;-0.326385498046875;3;;
130;;;;;;;18449.3397684199;-0.32958984375;-0.0006036376953125;-0.328826904296875;3;;
131;;;;;;;18449.5839094193;-0.33203125;-0.000623779296875;-0.331268310546875;3;;
132;;;;;;;18449.8280504187;-0.33447265625;-0.0006439208984375;-0.333740234375;3;;
133;;;;;;;18450.072191418;-0.3369140625;-0.00066436767578125;-0.336090087890625;3;;
134;;;;;;;18450.3163324174;-0.33935546875;-0.00068511962890625;-0.338592529296875;3;;
135;;;;;;;18450.5604734168;-0.341796875;-0.00070587158203125;-0.34100341796875;3;;
136;;;;;;;18450.8046144162;-0.34423828125;-0.00072662353515625;-0.3433837890625;3;;
137;;;;;;;18451.0487554156;-0.3466796875;-0.00074676513671875;-0.34588623046875;3;;
138;;;;;;;18451.292896415;-0.34912109375;-0.00076629638671875;-0.348297119140625;3;;
139;;;;;;;18451.5370374143;-0.3515625;-0.00078582763671875;-0.350738525390625;3;;
140;;;;;;;18451.7811784137;-0.35400390625;-0.0008050537109375;-0.3531494140625;3;;
141;;;;;;;18452.0253194131;-0.3564453125;-0.0008245849609375;-0.355560302734375;3;;
142;;;;;;;18452.2694604125;-0.35888671875;-0.0008441162109375;-0.358062744140625;3;;
143;;;;;;;18452.5136014119;-0.361328125;-0.000863037109375;-0.36041259765625;3;;
144;;;;;;;18452.7577424113;-0.36376953125;-0.00088134765625;-0.36285400390625;3;;
145;;;;;;;18453.0018834106;-0.3662109375;-0.00089935302734375;-0.365325927734375;3;;
146;;;;;;;18453.24602441;-0.36865234375;-0.00091644287109375;-0.367767333984375;3;;
147;;;;;;;18453.4901654094;-0.37109375;-0.00093353271484375;-0.37017822265625;3;;
148;;;;;;;18453.7343064088;-0.37353515625;-0.00095062255859375;-0.37261962890625;3;;
149;;;;;;;18453.9784474082;-0.3759765625;-0.0009674072265625;-0.375;3;;
150;;;;;;;18454.2225884076;-0.37841796875;-0.00098388671875;-0.37750244140625;3;;
151;;;;;;;18454.466729407;-0.380859375;-0.0009991455078125;-0.37994384765625;3;;
152;;;;;;;18454.7108704063;-0.38330078125;-0.00101348876953125;-0.382354736328125;3;;
153;;;;;;;18454.9550114057;-0.3857421875;-0.00102783203125;-0.38482666015625;3;;
154;;;;;;;18455.1991524051;-0.38818359375;-0.0010418701171875;-0.387237548828125;3;;
155;;;;;;;18455.4432934045;-0.390625;-0.00105560302734375;-0.389739990234375;3;;
156;;;;;;;18455.6874344039;-0.39306640625;-0.0010693359375;-0.39208984375;3;;
157;;;;;;;18455.9315754033;-0.3955078125;-0.0010821533203125;-0.394622802734375;3;;
158;;;;;;;18456.1757164026;-0.39794921875;-0.0010943603515625;-0.397003173828125;3;;
159;;;;;;;18456.419857402;-0.400390625;-0.00110595703125;-0.3994140625;3;;
160;;;;;;;18456.6639984014;-0.40283203125;-0.001116943359375;-0.401885986328125;3;;
161;;;;;;;18456.9081394008;-0.4052734375;-0.00112762451171875;-0.404327392578125;3;;
162;;;;;;;18457.1522804002;-0.40771484375;-0.0011383056640625;-0.40673828125;3;;
163;;;;;;;18457.3964213996;-0.41015625;-0.001148681640625;-0.40911865234375;3;;
164;;;;;;;18457.6405623989;-0.41259765625;-0.001158447265625;-0.41168212890625;3;;
165;;;;;;;18457.8847033983;-0.4150390625;-0.00116790771484375;-0.4140625;3;;
166;;;;;;;18458.1288443977;-0.41748046875;-0.0011767578125;-0.41650390625;3;;
167;;;;;;;18458.3729853971;-0.419921875;-0.0011846923828125;-0.4189453125;3;;
168;;;;;;;18458.6171263965;-0.42236328125;-0.00119293212890625;-0.421295166015625;3;;
169;;;;;;;18458.8612673959;-0.4248046875;-0.001201171875;-0.423797607421875;3;;
170;;;;;;;18459.1054083952;-0.42724609375;-0.0012091064453125;-0.42620849609375;3;;
171;;;;;;;18459.3495493946;-0.4296875;-0.001217041015625;-0.4287109375;3;;
172;;;;;;;18459.593690394;-0.43212890625;-0.0012237548828125;-0.431060791015625;3;;
173;;;;;;;18459.8378313934;-0.4345703125;-0.00123046875;-0.433502197265625;3;;
174;;;;;;;18460.0819723928;-0.43701171875;-0.00123687744140625;-0.436004638671875;3;;
175;;;;;;;18460.3261133922;-0.439453125;-0.00124298095703125;-0.438385009765625;3;;
176;;;;;;;18460.5702543915;-0.44189453125;-0.00124908447265625;-0.44085693359375;3;;
177;;;;;;;18460.8143953909;-0.4443359375;-0.0012548828125;-0.443328857421875;3;;
178;;;;;;;18461.0585363903;-0.44677734375;-0.00126129150390625;-0.445709228515625;3;;
179;;;;;;;18461.3026773897;-0.44921875;-0.0012677001953125;-0.448150634765625;3;;
180;;;;;;;18461.5468183891;-0.45166015625;-0.00127288818359375;-0.4505615234375;3;;
181;;;;;;;18461.7909593885;-0.4541015625;-0.0012774658203125;-0.453033447265625;3;;
182;;;;;;;18462.0351003878;-0.45654296875;-0.0012823486328125;-0.455474853515625;3;;
183;;;;;;;18462.2792413872;-0.458984375;-0.0012872314453125;-0.4578857421875;3;;
184;;;;;;;18462.5233823866;-0.46142578125;-0.00129180908203125;-0.460296630859375;3;;
185;;;;;;;18462.767523386;-0.4638671875;-0.0012969970703125;-0.462799072265625;3;;
186;;;;;;;18463.0116643854;-0.46630859375;-0.00130126953125;-0.4652099609375;3;;
187;;;;;;;18463.2558053848;-0.46875;-0.001304931640625;-0.467681884765625;3;;
188;;;;;;;18463.4999463841;-0.47119140625;-0.00130859375;-0.47003173828125;3;;
189;;;;;;;18463.7440873835;-0.4736328125;-0.001312255859375;-0.472503662109375;3;;
190;;;;;;;18463.9882283829;-0.47607421875;-0.0013165283203125;-0.474945068359375;3;;
191;;;;;;;18464.2323693823;-0.478515625;-0.0013201904296875;-0.4774169921875;3;;
192;;;;;;;18464.4765103817;-0.48095703125;-0.00132476806640625;-0.479827880859375;3;;
193;;;;;;;18464.7206513811;-0.4833984375;-0.00132843017578125;-0.482269287109375;3;;
194;;;;;;;18464.9647923804;-0.48583984375;-0.00133087158203125;-0.4847412109375;3;;
195;;;;;;;18465.2089333798;-0.48828125;-0.0013330078125;-0.487091064453125;3;;
196;;;;;;;18465.4530743792;-0.49072265625;-0.0013360595703125;-0.489532470703125;3;;
197;;;;;;;18465.6972153786;-0.4931640625;-0.00133941650390625;-0.49200439453125;3;;
198;;;;;;;18465.941356378;-0.49560546875;-0.00134246826171875;-0.49444580078125;3;;
199;;;;;;;18466.1854973774;-0.498046875;-0.00134552001953125;-0.496856689453125;3;;
200;;;;;;;18466.4296383767;-0.50048828125;-0.001348876953125;-0.4993896484375;3;;
201;;;;;;;18466.6737793761;-0.5029296875;-0.0013507080078125;-0.501800537109375;3;;
202;;;;;;;18466.9179203755;-0.50537109375;-0.00135345458984375;-0.504180908203125;3;;
203;;;;;;;18467.1620613749;-0.5078125;-0.00135467529296875;-0.506683349609375;3;;
204;;;;;;;18467.4062023743;-0.51025390625;-0.001357421875;-0.509033203125;3;;
205;;;;;;;18467.6503433737;-0.5126953125;-0.00136016845703125;-0.51153564453125;3;;
206;;;;;;;18467.8944843731;-0.51513671875;-0.0013629150390625;-0.51397705078125;3;;
207;;;;;;;18468.1386253724;-0.517578125;-0.00136566162109375;-0.516326904296875;3;;
208;;;;;;;18468.3827663718;-0.52001953125;-0.0013671875;-0.518829345703125;3;;
209;;;;;;;18468.6269073712;-0.5224609375;-0.00136871337890625;-0.521270751953125;3;;
210;;;;;;;18468.8710483706;-0.52490234375;-0.001370849609375;-0.523681640625;3;;
211;;;;;;;18469.11518937;-0.52734375;-0.00137176513671875;-0.526153564453125;3;;
212;;;;;;;18469.3593303693;-0.52978515625;-0.00137481689453125;-0.528594970703125;3;;
213;;;;;;;18469.6034713687;-0.5322265625;-0.00137664794921875;-0.531036376953125;3;;
214;;;;;;;18469.8476123681;-0.53466796875;-0.0013787841796875;-0.533447265625;3;;
215;;;;;;;18470.0917533675;-0.537109375;-0.0013812255859375;-0.535888671875;3;;
216;;;;;;;18470.3358943669;-0.53955078125;-0.00138092041015625;-0.53839111328125;3;;
217;;;;;;;18470.5800353663;-0.5419921875;-0.00138275146484375;-0.540740966796875;3;;
218;;;;;;;18470.8241763657;-0.54443359375;-0.0013848876953125;-0.543182373046875;3;;
219;;;;;;;18471.068317365;-0.546875;-0.0013873291015625;-0.545654296875;3;;
220;;;;;;;18471.3124583644;-0.54931640625;-0.00138885498046875;-0.54803466796875;3;;
221;;;;;;;18471.5565993638;-0.5517578125;-0.00138916015625;-0.550567626953125;3;;
222;;;;;;;18471.8007403632;-0.55419921875;-0.00139007568359375;-0.552978515625;3;;
223;;;;;;;18472.0448813626;-0.556640625;-0.00139129638671875;-0.555389404296875;3;;
224;;;;;;;18472.289022362;-0.55908203125;-0.0013909912109375;-0.55780029296875;3;;
225;;;;;;;18472.5331633613;-0.5615234375;-0.00139373779296875;-0.56024169921875;3;;
226;;;;;;;18472.7773043607;-0.56396484375;-0.001395263671875;-0.562713623046875;3;;
227;;;;;;;18473.0214453601;-0.56640625;-0.00139801025390625;-0.565185546875;3;;
228;;;;;;;18473.2655863595;-0.56884765625;-0.00139801025390625;-0.56756591796875;3;;
229;;;;;;;18473.5097273589;-0.5712890625;-0.00139923095703125;-0.570068359375;3;;
230;;;;;;;18473.7538683583;-0.57373046875;-0.0013995361328125;-0.572418212890625;3;;
231;;;;;;;18473.9980093576;-0.576171875;-0.00140472412109375;-0.574920654296875;3;;
232;;;;;;;18474.242150357;-0.57861328125;-0.001405029296875;-0.57733154296875;3;;
233;;;;;;;18474.4862913564;-0.5810546875;-0.001407470703125;-0.579803466796875;3;;
234;;;;;;;18474.7304323558;-0.58349609375;-0.00141082763671875;-0.58221435546875;3;;
235;;;;;;;18474.9745733552;-0.5859375;-0.00140777587890625;-0.58465576171875;3;;
236;;;;;;;18475.2187143546;-0.58837890625;-0.001407470703125;-0.5870361328125;3;;
237;;;;;;;18475.4628553539;-0.5908203125;-0.0014080810546875;-0.5894775390625;3;;
238;;;;;;;18475.7069963533;-0.59326171875;-0.001407470703125;-0.5919189453125;3;;
239;;;;;;;18475.9511373527;-0.595703125;-0.00140899658203125;-0.594390869140625;3;;
240;;;;;;;18476.1952783521;-0.59814453125;-0.00140960693359375;-0.5968017578125;3;;
241;;;;;;;18476.4394193515;-0.6005859375;-0.0014129638671875;-0.5992431640625;3;;
242;;;;;;;18476.6835603509;-0.60302734375;-0.0014117431640625;-0.6016845703125;3;;
243;;;;;;;18476.9277013502;-0.60546875;-0.0014111328125;-0.604156494140625;3;;
244;;;;;;;18477.1718423496;-0.60791015625;-0.0014129638671875;-0.6065673828125;3;;
245;;;;;;;18477.415983349;-0.6103515625;-0.00141265869140625;-0.6090087890625;3;;
246;;;;;;;18477.6601243484;-0.61279296875;-0.00141448974609375;-0.6114501953125;3;;
247;;;;;;;18477.9042653478;-0.615234375;-0.00141510009765625;-0.6138916015625;3;;
248;;;;;;;18478.1484063472;-0.61767578125;-0.0014154052734375;-0.61627197265625;3;;
249;;;;;;;18478.3925473465;-0.6201171875;-0.00141510009765625;-0.618804931640625;3;;
250;;;;;;;18478.6366883459;-0.62255859375;-0.0014154052734375;-0.621185302734375;3;;
251;;;;;;;18478.8808293453;-0.625;-0.0014154052734375;-0.623687744140625;3;;
252;;;;;;;18479.1249703447;-0.62744140625;-0.00141387939453125;-0.626068115234375;3;;
253;;;;;;;18479.3691113441;-0.6298828125;-0.00141632080078125;-0.6285400390625;3;;
254;;;;;;;18479.6132523435;-0.63232421875;-0.0014166259765625;-0.6309814453125;3;;
255;;;;;;;18479.8573933428;-0.634765625;-0.0014178466796875;-0.633392333984375;3;;
256;;;;;;;18480.1015343422;-0.63720703125;-0.001417236328125;-0.6358642578125;3;;
257;;;;;;;18480.3456753416;-0.6396484375;-0.0014178466796875;-0.638275146484375;3;;
258;;;;;;;18480.589816341;-0.64208984375;-0.001417236328125;-0.6407470703125;3;;
259;;;;;;;18480.8339573404;-0.64453125;-0.00141754150390625;-0.6431884765625;3;;
260;;;;;;;18481.0780983398;-0.64697265625;-0.0014166259765625;-0.64556884765625;3;;
261;;;;;;;18481.3222393391;-0.6494140625;-0.0014166259765625;-0.648040771484375;3;;
262;;;;;;;18481.5663803385;-0.65185546875;-0.00141815185546875;-0.650543212890625;3;;
263;;;;;;;18481.8105213379;-0.654296875;-0.00141876220703125;-0.652923583984375;3;;
264;;;;;;;18482.0546623373;-0.65673828125;-0.0014178466796875;-0.655364990234375;3;;
265;;;;;;;18482.2988033367;-0.6591796875;-0.0014166259765625;-0.657806396484375;3;;
266;;;;;;;18482.5429443361;-0.66162109375;-0.00141510009765625;-0.6602783203125;3;;
267;;;;;;;18482.7870853354;-0.6640625;-0.00141571044921875;-0.662689208984375;3;;
268;;;;;;;18483.0312263348;-0.66650390625;-0.00141632080078125;-0.665130615234375;3;;
269;;;;;;;18483.2753673342;-0.6689453125;-0.00141632080078125;-0.667510986328125;3;;
270;;;;;;;18483.5195083336;-0.67138671875;-0.00141571044921875;-0.670013427734375;3;;
271;;;;;;;18483.763649333;-0.673828125;-0.0014129638671875;-0.67242431640625;3;;
272;;;;;;;18484.0077903324;-0.67626953125;-0.0014129638671875;-0.674896240234375;3;;
273;;;;;;;18484.2519313318;-0.6787109375;-0.00141265869140625;-0.6773681640625;3;;
274;;;;;;;18484.4960723311;-0.68115234375;-0.00141326904296875;-0.6798095703125;3;;
275;;;;;;;18484.7402133305;-0.68359375;-0.00141143798828125;-0.6822509765625;3;;
276;;;;;;;18484.9843543299;-0.68603515625;-0.00141265869140625;-0.684661865234375;3;;
277;;;;;;;18485.2284953293;-0.6884765625;-0.001412353515625;-0.687042236328125;3;;
278;;;;;;;18485.4726363287;-0.69091796875;-0.00141143798828125;-0.689544677734375;3;;
279;;;;;;;18485.7167773281;-0.693359375;-0.0014093017578125;-0.691986083984375;3;;
280;;;;;;;18485.9609183274;-0.69580078125;-0.001407470703125;-0.69439697265625;3;;
281;;;;;;;18486.2050593268;-0.6982421875;-0.0014080810546875;-0.69683837890625;3;;
282;;;;;;;18486.4492003262;-0.70068359375;-0.00140838623046875;-0.69927978515625;3;;
283;;;;;;;18486.6933413256;-0.703125;-0.001407470703125;-0.701751708984375;3;;
284;;;;;;;18486.937482325;-0.70556640625;-0.00140716552734375;-0.70416259765625;3;;
285;;;;;;;18487.1816233244;-0.7080078125;-0.00140625;-0.70660400390625;3;;
286;;;;;;;18487.4257643237;-0.71044921875;-0.00140411376953125;-0.70904541015625;3;;
287;;;;;;;18487.6699053231;-0.712890625;-0.00140350341796875;-0.71148681640625;3;;
288;;;;;;;18487.9140463225;-0.71533203125;-0.00140380859375;-0.713958740234375;3;;
289;;;;;;;18488.1581873219;-0.7177734375;-0.001402587890625;-0.716339111328125;3;;
290;;;;;;;18488.4023283213;-0.72021484375;-0.00140350341796875;-0.718780517578125;3;;
291;;;;;;;18488.6464693207;-0.72265625;-0.001402587890625;-0.721282958984375;3;;
292;;;;;;;18488.89061032;-0.72509765625;-0.00139984130859375;-0.723663330078125;3;;
293;;;;;;;18489.1347513194;-0.7275390625;-0.00139984130859375;-0.726104736328125;3;;
294;;;;;;;18489.3788923188;-0.72998046875;-0.0013970947265625;-0.72857666015625;3;;
295;;;;;;;18489.6230333182;-0.732421875;-0.00139801025390625;-0.7310791015625;3;;
296;;;;;;;18489.8671743176;-0.73486328125;-0.0013958740234375;-0.73345947265625;3;;
297;;;;;;;18490.111315317;-0.7373046875;-0.001396484375;-0.73590087890625;3;;
298;;;;;;;18490.3554563163;-0.73974609375;-0.00139617919921875;-0.738372802734375;3;;
299;;;;;;;18490.5995973157;-0.7421875;-0.00139434814453125;-0.740753173828125;3;;
300;;;;;;;18490.8437383151;-0.74462890625;-0.00139373779296875;-0.7431640625;3;;
301;;;;;;;18491.0878793145;-0.7470703125;-0.001392822265625;-0.745635986328125;3;;
302;;;;;;;18491.3320203139;-0.74951171875;-0.00139068603515625;-0.748138427734375;3;;
303;;;;;;;18491.5761613133;-0.751953125;-0.001390380859375;-0.75042724609375;3;;
304;;;;;;;18491.8203023126;-0.75439453125;-0.0013897705078125;-0.75347900390625;3;;
305;;;;;;;18492.064443312;-0.7568359375;-0.00138885498046875;-0.7562255859375;3;;
306;;;;;;;18492.3085843114;-0.75927734375;-0.001387939453125;-0.75836181640625;3;;
307;;;;;;;18492.5527253108;-0.76171875;-0.00138580322265625;-0.76080322265625;3;;
308;;;;;;;18492.7968663102;-0.76416015625;-0.00138641357421875;-0.7635498046875;3;;
309;;;;;;;18493.0410073096;-0.7666015625;-0.00138702392578125;-0.76629638671875;3;;
310;;;;;;;18493.2851483089;-0.76904296875;-0.0013848876953125;-0.7684326171875;3;;
311;;;;;;;18493.5292893083;-0.771484375;-0.00138427734375;-0.77056884765625;3;;
312;;;;;;;18493.7734303077;-0.77392578125;-0.0013818359375;-0.7733154296875;3;;
313;;;;;;;18494.0175713071;-0.7763671875;-0.001383056640625;-0.7757568359375;3;;
314;;;;;;;18494.2617123065;-0.77880859375;-0.00138031005859375;-0.77789306640625;3;;
315;;;;;;;18494.5058533059;-0.78125;-0.00137847900390625;-0.78033447265625;3;;
316;;;;;;;18494.7499943052;-0.78369140625;-0.0013800048828125;-0.78277587890625;3;;
317;;;;;;;18494.9941353046;-0.7861328125;-0.00137969970703125;-0.784912109375;3;;
318;;;;;;;18495.238276304;-0.78857421875;-0.00137969970703125;-0.7879638671875;3;;
319;;;;;;;18495.4824173034;-0.791015625;-0.00137786865234375;-0.79071044921875;3;;
320;;;;;;;18495.7265583028;-0.79345703125;-0.001378173828125;-0.792236328125;3;;
321;;;;;;;18495.9706993022;-0.7958984375;-0.001375732421875;-0.794677734375;3;;
322;;;;;;;18496.2148403015;-0.79833984375;-0.00137786865234375;-0.797119140625;3;;
323;;;;;;;18496.4589813009;-0.80078125;-0.00137420654296875;-0.79986572265625;3;;
324;;;;;;;18496.7031223003;-0.80322265625;-0.0013763427734375;-0.80230712890625;3;;
325;;;;;;;18496.9472632997;-0.8056640625;-0.00137359619140625;-0.8050537109375;3;;
326;;;;;;;18497.1914042991;-0.80810546875;-0.001373291015625;-0.80780029296875;3;;
327;;;;;;;18497.4355452985;-0.810546875;-0.00137237548828125;-0.8099365234375;3;;
328;;;;;;;18497.6796862978;-0.81298828125;-0.00137176513671875;-0.8123779296875;3;;
329;;;;;;;18497.9238272972;-0.8154296875;-0.0013720703125;-0.8148193359375;3;;
330;;;;;;;18498.1679682966;-0.81787109375;-0.00137115478515625;-0.8172607421875;3;;
331;;;;;;;18498.412109296;-0.8203125;-0.0013720703125;-0.81939697265625;3;;
332;;;;;;;18498.6562502954;-0.82275390625;-0.0013720703125;-0.821533203125;3;;
333;;;;;;;18498.9003912948;-0.8251953125;-0.00137176513671875;-0.82427978515625;3;;
334;;;;;;;18499.1445322942;-0.82763671875;-0.00137176513671875;-0.82763671875;3;;
335;;;;;;;18499.3886732935;-0.830078125;-0.00137237548828125;-0.82916259765625;3;;
336;;;;;;;18499.6328142929;-0.83251953125;-0.0013702392578125;-0.83160400390625;3;;
337;;;;;;;18499.8769552923;-0.8349609375;-0.00137054443359375;-0.833740234375;3;;
338;;;;;;;18500.1210962917;-0.83740234375;-0.0013714599609375;-0.8367919921875;3;;
339;;;;;;;18500.3652372911;-0.83984375;-0.00137298583984375;-0.83892822265625;3;;
340;;;;;;;18500.6093782905;-0.84228515625;-0.0013726806640625;-0.8416748046875;3;;
341;;;;;;;18500.8535192898;-0.8447265625;-0.0013720703125;-0.84381103515625;3;;
342;;;;;;;18501.0976602892;-0.84716796875;-0.00137237548828125;-0.8465576171875;3;;
343;;;;;;;18501.3418012886;-0.849609375;-0.0013726806640625;-0.84869384765625;3;;
344;;;;;;;18501.585942288;-0.85205078125;-0.00137359619140625;-0.850830078125;3;;
345;;;;;;;18501.8300832874;-0.8544921875;-0.0013751220703125;-0.85357666015625;3;;
346;;;;;;;18502.0742242868;-0.85693359375;-0.00137542724609375;-0.85601806640625;3;;
347;;;;;;;18502.3183652861;-0.859375;-0.00137481689453125;-0.85845947265625;3;;
348;;;;;;;18502.5625062855;-0.86181640625;-0.00137298583984375;-0.86090087890625;3;;
349;;;;;;;18502.8066472849;-0.8642578125;-0.00137176513671875;-0.8636474609375;3;;
350;;;;;;;18503.0507882843;-0.86669921875;-0.0013726806640625;-0.86578369140625;3;;
351;;;;;;;18503.2949292837;-0.869140625;-0.00137420654296875;-0.86822509765625;3;;
352;;;;;;;18503.5390702831;-0.87158203125;-0.00137359619140625;-0.8709716796875;3;;
353;;;;;;;18503.7832112824;-0.8740234375;-0.00137176513671875;-0.87371826171875;3;;
354;;;;;;;18504.0273522818;-0.87646484375;-0.0013775634765625;-0.8758544921875;3;;
355;;;;;;;18504.2714932812;-0.87890625;-0.001375732421875;-0.8782958984375;3;;
356;;;;;;;18504.5156342806;-0.88134765625;-0.00137847900390625;-0.8807373046875;3;;
357;;;;;;;18504.75977528;-0.8837890625;-0.00137786865234375;-0.88287353515625;3;;
358;;;;;;;18505.0039162794;-0.88623046875;-0.0013775634765625;-0.8856201171875;3;;
359;;;;;;;18505.2480572787;-0.888671875;-0.001378173828125;-0.88775634765625;3;;
360;;;;;;;18505.4921982781;-0.89111328125;-0.0013812255859375;-0.89019775390625;3;;
361;;;;;;;18505.7363392775;-0.8935546875;-0.00138153076171875;-0.8929443359375;3;;
362;;;;;;;18505.9804802769;-0.89599609375;-0.0013824462890625;-0.894775390625;3;;
363;;;;;;;18506.2246212763;-0.8984375;-0.00138092041015625;-0.8978271484375;3;;
364;;;;;;;18506.4687622757;-0.90087890625;-0.00137969970703125;-0.9002685546875;3;;
365;;;;;;;18506.712903275;-0.9033203125;-0.00138275146484375;-0.902099609375;3;;
366;;;;;;;18506.9570442744;-0.90576171875;-0.00138275146484375;-0.9051513671875;3;;
367;;;;;;;18507.2011852738;-0.908203125;-0.00138519287109375;-0.9075927734375;3;;
368;;;;;;;18507.4453262732;-0.91064453125;-0.00138519287109375;-0.90972900390625;3;;
369;;;;;;;18507.6894672726;-0.9130859375;-0.00138641357421875;-0.911865234375;3;;
370;;;;;;;18507.933608272;-0.91552734375;-0.00138580322265625;-0.91522216796875;3;;
371;;;;;;;18508.1777492713;-0.91796875;-0.0013861083984375;-0.9173583984375;3;;
372;;;;;;;18508.4218902707;-0.92041015625;-0.00138702392578125;-0.9197998046875;3;;
373;;;;;;;18508.6660312701;-0.9228515625;-0.001387939453125;-0.9222412109375;3;;
374;;;;;;;18508.9101722695;-0.92529296875;-0.00138885498046875;-0.924072265625;3;;
375;;;;;;;18509.1543132689;-0.927734375;-0.00139007568359375;-0.92681884765625;3;;
376;;;;;;;18509.3984542683;-0.93017578125;-0.00139007568359375;-0.92926025390625;3;;
377;;;;;;;18509.6425952676;-0.9326171875;-0.00139129638671875;-0.93170166015625;3;;
378;;;;;;;18509.886736267;-0.93505859375;-0.0013909912109375;-0.93414306640625;3;;
379;;;;;;;18510.1308772664;-0.9375;-0.0013909912109375;-0.93719482421875;3;;
380;;;;;;;18510.3750182658;-0.93994140625;-0.00139190673828125;-0.9393310546875;3;;
381;;;;;;;18510.6191592652;-0.9423828125;-0.00139373779296875;-0.94146728515625;3;;
382;;;;;;;18510.8633002646;-0.94482421875;-0.00139495849609375;-0.94390869140625;3;;
383;;;;;;;18511.1074412639;-0.947265625;-0.0013934326171875;-0.94696044921875;3;;
384;;;;;;;18511.3515822633;-0.94970703125;-0.001390380859375;-0.94940185546875;3;;
385;;;;;;;18511.5957232627;-0.9521484375;-0.00139129638671875;-0.9515380859375;3;;
386;;;;;;;18511.8398642621;-0.95458984375;-0.00139190673828125;-0.953369140625;3;;
387;;;;;;;18512.0840052615;-0.95703125;-0.00139312744140625;-0.955810546875;3;;
388;;;;;;;18512.3281462609;-0.95947265625;-0.00139556884765625;-0.9588623046875;3;;
389;;;;;;;18512.5722872602;-0.9619140625;-0.0013934326171875;-0.9613037109375;3;;
390;;;;;;;18512.8164282596;-0.96435546875;-0.0013958740234375;-0.963134765625;3;;
391;;;;;;;18513.060569259;-0.966796875;-0.00139373779296875;-0.9661865234375;3;;
392;;;;;;;18513.3047102584;-0.96923828125;-0.00139404296875;-0.9686279296875;3;;
393;;;;;;;18513.5488512578;-0.9716796875;-0.00139495849609375;-0.97137451171875;3;;
394;;;;;;;18513.7929922572;-0.97412109375;-0.0013958740234375;-0.97320556640625;3;;
395;;;;;;;18514.0371332565;-0.9765625;-0.00139739990234375;-0.9759521484375;3;;
396;;;;;;;18514.2812742559;-0.97900390625;-0.00139862060546875;-0.977783203125;3;;
397;;;;;;;18514.5254152553;-0.9814453125;-0.0013995361328125;-0.98052978515625;3;;
398;;;;;;;18514.7695562547;-0.98388671875;-0.00139892578125;-0.9832763671875;3;;
399;;;;;;;18515.0136972541;-0.986328125;-0.0013995361328125;-0.9857177734375;3;;
400;;;;;;;18515.2578382535;-0.98876953125;-0.00139984130859375;-0.9881591796875;3;;
401;;;;;;;18515.5019792529;-0.9912109375;-0.00140289306640625;-0.99029541015625;3;;
402;;;;;;;18515.7461202522;-0.99365234375;-0.00140228271484375;-0.9930419921875;3;;
403;;;;;;;18515.9902612516;-0.99609375;-0.0014031982421875;-0.99517822265625;3;;
404;;;;;;;18516.234402251;-0.99853515625;-0.0014031982421875;-0.99761962890625;3;;
405;;;;;;;18516.4785432504;-1.0009765625;-0.00140289306640625;-1.00006103515625;3;;
406;;;;;;;18516.7226842498;-0.99853515625;-0.0013983154296875;-0.9979248046875;3;;
407;;;;;;;18516.9668252492;-0.99609375;-0.00139373779296875;-0.9954833984375;3;;
408;;;;;;;18517.2109662485;-0.99365234375;-0.00138824462890625;-0.99334716796875;3;;
409;;;;;;;18517.4551072479;-0.9912109375;-0.00138641357421875;-0.99029541015625;3;;
410;;;;;;;18517.6992482473;-0.98876953125;-0.0013824462890625;-0.9881591796875;3;;
411;;;;;;;18517.9433892467;-0.986328125;-0.001375732421875;-0.98541259765625;3;;
412;;;;;;;18518.1875302461;-0.98388671875;-0.0013751220703125;-0.98358154296875;3;;
413;;;;;;;18518.4316712455;-0.9814453125;-0.00137298583984375;-0.98052978515625;3;;
414;;;;;;;18518.6758122448;-0.97900390625;-0.0013690185546875;-0.97808837890625;3;;
415;;;;;;;18518.9199532442;-0.9765625;-0.00136627197265625;-0.97564697265625;3;;
416;;;;;;;18519.1640942436;-0.97412109375;-0.00136474609375;-0.97320556640625;3;;
417;;;;;;;18519.408235243;-0.9716796875;-0.00136138916015625;-0.97137451171875;3;;
418;;;;;;;18519.6523762424;-0.96923828125;-0.00135650634765625;-0.96893310546875;3;;
419;;;;;;;18519.8965172418;-0.966796875;-0.00135406494140625;-0.96588134765625;3;;
420;;;;;;;18520.1406582411;-0.96435546875;-0.001353759765625;-0.96343994140625;3;;
421;;;;;;;18520.3847992405;-0.9619140625;-0.00135162353515625;-0.96160888671875;3;;
422;;;;;;;18520.6289402399;-0.95947265625;-0.00134857177734375;-0.95855712890625;3;;
423;;;;;;;18520.8730812393;-0.95703125;-0.00134857177734375;-0.95611572265625;3;;
424;;;;;;;18521.1172222387;-0.95458984375;-0.001346435546875;-0.9539794921875;3;;
425;;;;;;;18521.3613632381;-0.9521484375;-0.00134368896484375;-0.9515380859375;3;;
426;;;;;;;18521.6055042374;-0.94970703125;-0.0013421630859375;-0.94879150390625;3;;
427;;;;;;;18521.8496452368;-0.947265625;-0.00133941650390625;-0.94635009765625;3;;
428;;;;;;;18522.0937862362;-0.94482421875;-0.00133941650390625;-0.94390869140625;3;;
429;;;;;;;18522.3379272356;-0.9423828125;-0.00133819580078125;-0.9417724609375;3;;
430;;;;;;;18522.582068235;-0.93994140625;-0.00133544921875;-0.938720703125;3;;
431;;;;;;;18522.8262092344;-0.9375;-0.00133514404296875;-0.93658447265625;3;;
432;;;;;;;18523.0703502337;-0.93505859375;-0.0013336181640625;-0.93475341796875;3;;
433;;;;;;;18523.3144912331;-0.9326171875;-0.00133056640625;-0.931396484375;3;;
434;;;;;;;18523.5586322325;-0.93017578125;-0.00132904052734375;-0.92926025390625;3;;
435;;;;;;;18523.8027732319;-0.927734375;-0.00132781982421875;-0.9271240234375;3;;
436;;;;;;;18524.0469142313;-0.92529296875;-0.001326904296875;-0.9246826171875;3;;
437;;;;;;;18524.2910552307;-0.9228515625;-0.001328125;-0.92193603515625;3;;
438;;;;;;;18524.53519623;-0.92041015625;-0.00132720947265625;-0.9197998046875;3;;
439;;;;;;;18524.7793372294;-0.91796875;-0.001324462890625;-0.91705322265625;3;;
440;;;;;;;18525.0234782288;-0.91552734375;-0.0013238525390625;-0.91522216796875;3;;
441;;;;;;;18525.2676192282;-0.9130859375;-0.00132354736328125;-0.91217041015625;3;;
442;;;;;;;18525.5117602276;-0.91064453125;-0.00132080078125;-0.909423828125;3;;
443;;;;;;;18525.755901227;-0.908203125;-0.001319580078125;-0.90728759765625;3;;
444;;;;;;;18526.0000422263;-0.90576171875;-0.00132110595703125;-0.9051513671875;3;;
445;;;;;;;18526.2441832257;-0.9033203125;-0.00131988525390625;-0.90240478515625;3;;
446;;;;;;;18526.4883242251;-0.90087890625;-0.00131683349609375;-0.90057373046875;3;;
447;;;;;;;18526.7324652245;-0.8984375;-0.0013153076171875;-0.89752197265625;3;;
448;;;;;;;18526.9766062239;-0.89599609375;-0.0013140869140625;-0.8953857421875;3;;
449;;;;;;;18527.2207472233;-0.8935546875;-0.0013128662109375;-0.892333984375;3;;
450;;;;;;;18527.4648882226;-0.89111328125;-0.0013140869140625;-0.8905029296875;3;;
451;;;;;;;18527.709029222;-0.888671875;-0.00131317138671875;-0.88836669921875;3;;
452;;;;;;;18527.9531702214;-0.88623046875;-0.00131103515625;-0.8856201171875;3;;
453;;;;;;;18528.1973112208;-0.8837890625;-0.00131011962890625;-0.88287353515625;3;;
454;;;;;;;18528.4414522202;-0.88134765625;-0.00131011962890625;-0.8807373046875;3;;
455;;;;;;;18528.6855932196;-0.87890625;-0.00131072998046875;-0.87860107421875;3;;
456;;;;;;;18528.9297342189;-0.87646484375;-0.00130828857421875;-0.8758544921875;3;;
457;;;;;;;18529.1738752183;-0.8740234375;-0.0013092041015625;-0.872802734375;3;;
458;;;;;;;18529.4180162177;-0.87158203125;-0.001309814453125;-0.87127685546875;3;;
459;;;;;;;18529.6621572171;-0.869140625;-0.00130706787109375;-0.86822509765625;3;;
460;;;;;;;18529.9062982165;-0.86669921875;-0.001307373046875;-0.8660888671875;3;;
461;;;;;;;18530.1504392159;-0.8642578125;-0.00130859375;-0.86334228515625;3;;
462;;;;;;;18530.3945802153;-0.86181640625;-0.00130767822265625;-0.8612060546875;3;;
463;;;;;;;18530.6387212146;-0.859375;-0.00130523681640625;-0.85845947265625;3;;
464;;;;;;;18530.882862214;-0.85693359375;-0.00130523681640625;-0.85662841796875;3;;
465;;;;;;;18531.1270032134;-0.8544921875;-0.00130767822265625;-0.85357666015625;3;;
466;;;;;;;18531.3711442128;-0.85205078125;-0.0013055419921875;-0.85113525390625;3;;
467;;;;;;;18531.6152852122;-0.849609375;-0.00130615234375;-0.8489990234375;3;;
468;;;;;;;18531.8594262116;-0.84716796875;-0.001304931640625;-0.8465576171875;3;;
469;;;;;;;18532.1035672109;-0.8447265625;-0.00130462646484375;-0.84442138671875;3;;
470;;;;;;;18532.3477082103;-0.84228515625;-0.00130828857421875;-0.841064453125;3;;
471;;;;;;;18532.5918492097;-0.83984375;-0.00130828857421875;-0.838623046875;3;;
472;;;;;;;18532.8359902091;-0.83740234375;-0.00130950927734375;-0.836181640625;3;;
473;;;;;;;18533.0801312085;-0.8349609375;-0.0013079833984375;-0.8343505859375;3;;
474;;;;;;;18533.3242722079;-0.83251953125;-0.00130706787109375;-0.8319091796875;3;;
475;;;;;;;18533.5684132072;-0.830078125;-0.00130828857421875;-0.8294677734375;3;;
476;;;;;;;18533.8125542066;-0.82763671875;-0.0013079833984375;-0.8270263671875;3;;
477;;;;;;;18534.056695206;-0.8251953125;-0.00131103515625;-0.82427978515625;3;;
478;;;;;;;18534.3008362054;-0.82275390625;-0.00131317138671875;-0.82183837890625;3;;
479;;;;;;;18534.5449772048;-0.8203125;-0.00130950927734375;-0.81939697265625;3;;
480;;;;;;;18534.7891182042;-0.81787109375;-0.0013128662109375;-0.8172607421875;3;;
481;;;;;;;18535.0332592035;-0.8154296875;-0.00131103515625;-0.8148193359375;3;;
482;;;;;;;18535.2774002029;-0.81298828125;-0.0013116455078125;-0.8123779296875;3;;
483;;;;;;;18535.5215412023;-0.810546875;-0.0013134765625;-0.8099365234375;3;;
484;;;;;;;18535.7656822017;-0.80810546875;-0.00131439208984375;-0.806884765625;3;;
485;;;;;;;18536.0098232011;-0.8056640625;-0.0013153076171875;-0.804443359375;3;;
486;;;;;;;18536.2539642005;-0.80322265625;-0.001319580078125;-0.8026123046875;3;;
487;;;;;;;18536.4981051998;-0.80078125;-0.00131805419921875;-0.8001708984375;3;;
488;;;;;;;18536.7422461992;-0.79833984375;-0.00132293701171875;-0.79742431640625;3;;
489;;;;;;;18536.9863871986;-0.7958984375;-0.00132049560546875;-0.7952880859375;3;;
490;;;;;;;18537.230528198;-0.79345703125;-0.001324462890625;-0.79254150390625;3;;
491;;;;;;;18537.4746691974;-0.791015625;-0.00132537841796875;-0.79010009765625;3;;
492;;;;;;;18537.7188101968;-0.78857421875;-0.00132720947265625;-0.7879638671875;3;;
493;;;;;;;18537.9629511961;-0.7861328125;-0.001329345703125;-0.78521728515625;3;;
494;;;;;;;18538.2070921955;-0.78369140625;-0.00132904052734375;-0.78338623046875;3;;
495;;;;;;;18538.4512331949;-0.78125;-0.00132904052734375;-0.78033447265625;3;;
496;;;;;;;18538.6953741943;-0.77880859375;-0.0013311767578125;-0.77789306640625;3;;
497;;;;;;;18538.9395151937;-0.7763671875;-0.001334228515625;-0.77545166015625;3;;
498;;;;;;;18539.1836561931;-0.77392578125;-0.00133453369140625;-0.77362060546875;3;;
499;;;;;;;18539.4277971924;-0.771484375;-0.0013372802734375;-0.77056884765625;3;;
500;;;;;;;18539.6719381918;-0.76904296875;-0.001339111328125;-0.7684326171875;3;;
501;;;;;;;18539.9160791912;-0.7666015625;-0.00134033203125;-0.76568603515625;3;;
502;;;;;;;18540.1602201906;-0.76416015625;-0.001341552734375;-0.7635498046875;3;;
503;;;;;;;18540.40436119;-0.76171875;-0.00134185791015625;-0.7611083984375;3;;
504;;;;;;;18540.6485021894;-0.75927734375;-0.0013427734375;-0.75836181640625;3;;
505;;;;;;;18540.8926431887;-0.7568359375;-0.001346435546875;-0.75592041015625;3;;
506;;;;;;;18541.1367841881;-0.75439453125;-0.001348876953125;-0.75347900390625;3;;
507;;;;;;;18541.3809251875;-0.751953125;-0.00135040283203125;-0.75103759765625;3;;
508;;;;;;;18541.6250661869;-0.74951171875;-0.0013494873046875;-0.74810791015625;3;;
509;;;;;;;18541.8692071863;-0.7470703125;-0.001351318359375;-0.745635986328125;3;;
510;;;;;;;18542.1133481857;-0.74462890625;-0.00135345458984375;-0.7431640625;3;;
511;;;;;;;18542.357489185;-0.7421875;-0.00135467529296875;-0.740753173828125;3;;
512;;;;;;;18542.6016301844;-0.73974609375;-0.00135955810546875;-0.73834228515625;3;;
513;;;;;;;18542.8457711838;-0.7373046875;-0.00135894775390625;-0.73590087890625;3;;
514;;;;;;;18543.0899121832;-0.73486328125;-0.0013604736328125;-0.73345947265625;3;;
515;;;;;;;18543.3340531826;-0.732421875;-0.0013616943359375;-0.730987548828125;3;;
516;;;;;;;18543.578194182;-0.72998046875;-0.00136322021484375;-0.728607177734375;3;;
517;;;;;;;18543.8223351814;-0.7275390625;-0.00136322021484375;-0.726165771484375;3;;
518;;;;;;;18544.0664761807;-0.72509765625;-0.0013665771484375;-0.72369384765625;3;;
519;;;;;;;18544.3106171801;-0.72265625;-0.00136871337890625;-0.721221923828125;3;;
520;;;;;;;18544.5547581795;-0.72021484375;-0.00136962890625;-0.718780517578125;3;;
521;;;;;;;18544.7988991789;-0.7177734375;-0.0013739013671875;-0.716400146484375;3;;
522;;;;;;;18545.0430401783;-0.71533203125;-0.00137237548828125;-0.713958740234375;3;;
523;;;;;;;18545.2871811776;-0.712890625;-0.00137481689453125;-0.711517333984375;3;;
524;;;;;;;18545.531322177;-0.71044921875;-0.0013763427734375;-0.7091064453125;3;;
525;;;;;;;18545.7754631764;-0.7080078125;-0.001376953125;-0.7066650390625;3;;
526;;;;;;;18546.0196041758;-0.70556640625;-0.001376953125;-0.704193115234375;3;;
527;;;;;;;18546.2637451752;-0.703125;-0.001380615234375;-0.70172119140625;3;;
528;;;;;;;18546.5078861746;-0.70068359375;-0.001380615234375;-0.69927978515625;3;;
529;;;;;;;18546.752027174;-0.6982421875;-0.00138275146484375;-0.696868896484375;3;;
530;;;;;;;18546.9961681733;-0.69580078125;-0.0013824462890625;-0.69439697265625;3;;
531;;;;;;;18547.2403091727;-0.693359375;-0.00138702392578125;-0.6920166015625;3;;
532;;;;;;;18547.4844501721;-0.69091796875;-0.00138763427734375;-0.68951416015625;3;;
533;;;;;;;18547.7285911715;-0.6884765625;-0.00138671875;-0.68707275390625;3;;
534;;;;;;;18547.9727321709;-0.68603515625;-0.001387939453125;-0.68463134765625;3;;
535;;;;;;;18548.2168731703;-0.68359375;-0.00138885498046875;-0.682220458984375;3;;
536;;;;;;;18548.4610141696;-0.68115234375;-0.00139068603515625;-0.67974853515625;3;;
537;;;;;;;18548.705155169;-0.6787109375;-0.00138946533203125;-0.67730712890625;3;;
538;;;;;;;18548.9492961684;-0.67626953125;-0.0013897705078125;-0.67486572265625;3;;
539;;;;;;;18549.1934371678;-0.673828125;-0.0013922119140625;-0.67242431640625;3;;
540;;;;;;;18549.4375781672;-0.67138671875;-0.00139434814453125;-0.66998291015625;3;;
541;;;;;;;18549.6817191666;-0.6689453125;-0.00139312744140625;-0.667572021484375;3;;
542;;;;;;;18549.9258601659;-0.66650390625;-0.00139434814453125;-0.665130615234375;3;;
543;;;;;;;18550.1700011653;-0.6640625;-0.0013934326171875;-0.662689208984375;3;;
544;;;;;;;18550.4141421647;-0.66162109375;-0.00139404296875;-0.66021728515625;3;;
545;;;;;;;18550.6582831641;-0.6591796875;-0.0013922119140625;-0.657745361328125;3;;
546;;;;;;;18550.9024241635;-0.65673828125;-0.00139495849609375;-0.655303955078125;3;;
547;;;;;;;18551.1465651629;-0.654296875;-0.00139678955078125;-0.652923583984375;3;;
548;;;;;;;18551.3907061622;-0.65185546875;-0.001395263671875;-0.6505126953125;3;;
549;;;;;;;18551.6348471616;-0.6494140625;-0.0013958740234375;-0.6480712890625;3;;
550;;;;;;;18551.878988161;-0.64697265625;-0.00139617919921875;-0.645599365234375;3;;
551;;;;;;;18552.1231291604;-0.64453125;-0.001395263671875;-0.64312744140625;3;;
552;;;;;;;18552.3672701598;-0.64208984375;-0.0013946533203125;-0.64068603515625;3;;
553;;;;;;;18552.6114111592;-0.6396484375;-0.0013946533203125;-0.6383056640625;3;;
554;;;;;;;18552.8555521585;-0.63720703125;-0.001395263671875;-0.635833740234375;3;;
555;;;;;;;18553.0996931579;-0.634765625;-0.0013946533203125;-0.633392333984375;3;;
556;;;;;;;18553.3438341573;-0.63232421875;-0.00139495849609375;-0.63092041015625;3;;
557;;;;;;;18553.5879751567;-0.6298828125;-0.00139434814453125;-0.628509521484375;3;;
558;;;;;;;18553.8321161561;-0.62744140625;-0.00139434814453125;-0.626068115234375;3;;
559;;;;;;;18554.0762571555;-0.625;-0.00139312744140625;-0.6236572265625;3;;
560;;;;;;;18554.3203981548;-0.62255859375;-0.0013934326171875;-0.6212158203125;3;;
561;;;;;;;18554.5645391542;-0.6201171875;-0.00139312744140625;-0.6187744140625;3;;
562;;;;;;;18554.8086801536;-0.61767578125;-0.00139312744140625;-0.6163330078125;3;;
563;;;;;;;18555.052821153;-0.615234375;-0.001392822265625;-0.613922119140625;3;;
564;;;;;;;18555.2969621524;-0.61279296875;-0.0013909912109375;-0.6114501953125;3;;
565;;;;;;;18555.5411031518;-0.6103515625;-0.0013909912109375;-0.608978271484375;3;;
566;;;;;;;18555.7852441511;-0.60791015625;-0.00138916015625;-0.606597900390625;3;;
567;;;;;;;18556.0293851505;-0.60546875;-0.001390380859375;-0.6041259765625;3;;
568;;;;;;;18556.2735261499;-0.60302734375;-0.001390380859375;-0.6016845703125;3;;
569;;;;;;;18556.5176671493;-0.6005859375;-0.00138824462890625;-0.5992431640625;3;;
570;;;;;;;18556.7618081487;-0.59814453125;-0.00138916015625;-0.59686279296875;3;;
571;;;;;;;18557.0059491481;-0.595703125;-0.0013885498046875;-0.594329833984375;3;;
572;;;;;;;18557.2500901474;-0.59326171875;-0.00138458251953125;-0.5919189453125;3;;
573;;;;;;;18557.4942311468;-0.5908203125;-0.001385498046875;-0.589508056640625;3;;
574;;;;;;;18557.7383721462;-0.58837890625;-0.00138519287109375;-0.587066650390625;3;;
575;;;;;;;18557.9825131456;-0.5859375;-0.00138336181640625;-0.584625244140625;3;;
576;;;;;;;18558.226654145;-0.58349609375;-0.0013848876953125;-0.58221435546875;3;;
577;;;;;;;18558.4707951444;-0.5810546875;-0.0013824462890625;-0.579742431640625;3;;
578;;;;;;;18558.7149361437;-0.57861328125;-0.00138031005859375;-0.5772705078125;3;;
579;;;;;;;18558.9590771431;-0.576171875;-0.00137847900390625;-0.57489013671875;3;;
580;;;;;;;18559.2032181425;-0.57373046875;-0.0013800048828125;-0.572479248046875;3;;
581;;;;;;;18559.4473591419;-0.5712890625;-0.0013787841796875;-0.57000732421875;3;;
582;;;;;;;18559.6915001413;-0.56884765625;-0.00137664794921875;-0.567596435546875;3;;
583;;;;;;;18559.9356411407;-0.56640625;-0.001378173828125;-0.56512451171875;3;;
584;;;;;;;18560.1797821401;-0.56396484375;-0.00137481689453125;-0.562713623046875;3;;
585;;;;;;;18560.4239231394;-0.5615234375;-0.00137298583984375;-0.560302734375;3;;
586;;;;;;;18560.6680641388;-0.55908203125;-0.0013726806640625;-0.557830810546875;3;;
587;;;;;;;18560.9122051382;-0.556640625;-0.0013702392578125;-0.555450439453125;3;;
588;;;;;;;18561.1563461376;-0.55419921875;-0.00137054443359375;-0.552886962890625;3;;
589;;;;;;;18561.400487137;-0.5517578125;-0.00136993408203125;-0.550567626953125;3;;
590;;;;;;;18561.6446281364;-0.54931640625;-0.00136932373046875;-0.548065185546875;3;;
591;;;;;;;18561.8887691357;-0.546875;-0.00136871337890625;-0.545623779296875;3;;
592;;;;;;;18562.1329101351;-0.54443359375;-0.0013653564453125;-0.543212890625;3;;
593;;;;;;;18562.3770511345;-0.5419921875;-0.00136444091796875;-0.540771484375;3;;
594;;;;;;;18562.6211921339;-0.53955078125;-0.00136322021484375;-0.538360595703125;3;;
595;;;;;;;18562.8653331333;-0.537109375;-0.00136016845703125;-0.535858154296875;3;;
596;;;;;;;18563.1094741327;-0.53466796875;-0.00136077880859375;-0.533447265625;3;;
597;;;;;;;18563.353615132;-0.5322265625;-0.0013580322265625;-0.531005859375;3;;
598;;;;;;;18563.5977561314;-0.52978515625;-0.00135772705078125;-0.528564453125;3;;
599;;;;;;;18563.8418971308;-0.52734375;-0.00135711669921875;-0.526123046875;3;;
600;;;;;;;18564.0860381302;-0.52490234375;-0.00135284423828125;-0.523712158203125;3;;
601;;;;;;;18564.3301791296;-0.5224609375;-0.001351318359375;-0.521209716796875;3;;
602;;;;;;;18564.574320129;-0.52001953125;-0.00135101318359375;-0.518798828125;3;;
603;;;;;;;18564.8184611283;-0.517578125;-0.00135009765625;-0.516387939453125;3;;
604;;;;;;;18565.0626021277;-0.51513671875;-0.00134796142578125;-0.513916015625;3;;
605;;;;;;;18565.3067431271;-0.5126953125;-0.00134552001953125;-0.511474609375;3;;
606;;;;;;;18565.5508841265;-0.51025390625;-0.0013421630859375;-0.509063720703125;3;;
607;;;;;;;18565.7950251259;-0.5078125;-0.00134002685546875;-0.50665283203125;3;;
608;;;;;;;18566.0391661253;-0.50537109375;-0.00133819580078125;-0.504241943359375;3;;
609;;;;;;;18566.2833071246;-0.5029296875;-0.0013360595703125;-0.50177001953125;3;;
610;;;;;;;18566.527448124;-0.50048828125;-0.00133514404296875;-0.49932861328125;3;;
611;;;;;;;18566.7715891234;-0.498046875;-0.001331787109375;-0.496917724609375;3;;
612;;;;;;;18567.0157301228;-0.49560546875;-0.00133087158203125;-0.494384765625;3;;
613;;;;;;;18567.2598711222;-0.4931640625;-0.00132720947265625;-0.491973876953125;3;;
614;;;;;;;18567.5040121216;-0.49072265625;-0.0013226318359375;-0.48956298828125;3;;
615;;;;;;;18567.7481531209;-0.48828125;-0.0013201904296875;-0.4871826171875;3;;
616;;;;;;;18567.9922941203;-0.48583984375;-0.0013177490234375;-0.484710693359375;3;;
617;;;;;;;18568.2364351197;-0.4833984375;-0.001314697265625;-0.482269287109375;3;;
618;;;;;;;18568.4805761191;-0.48095703125;-0.00131195068359375;-0.4798583984375;3;;
619;;;;;;;18568.7247171185;-0.478515625;-0.00130859375;-0.4774169921875;3;;
620;;;;;;;18568.9688581179;-0.47607421875;-0.00130462646484375;-0.474945068359375;3;;
621;;;;;;;18569.2129991172;-0.4736328125;-0.001300048828125;-0.472442626953125;3;;
622;;;;;;;18569.4571401166;-0.47119140625;-0.00129608154296875;-0.4700927734375;3;;
623;;;;;;;18569.701281116;-0.46875;-0.00129302978515625;-0.4676513671875;3;;
624;;;;;;;18569.9454221154;-0.46630859375;-0.0012896728515625;-0.4652099609375;3;;
625;;;;;;;18570.1895631148;-0.4638671875;-0.001285400390625;-0.462799072265625;3;;
626;;;;;;;18570.4337041142;-0.46142578125;-0.00128021240234375;-0.460296630859375;3;;
627;;;;;;;18570.6778451135;-0.458984375;-0.00127532958984375;-0.457916259765625;3;;
628;;;;;;;18570.9219861129;-0.45654296875;-0.0012701416015625;-0.455474853515625;3;;
629;;;;;;;18571.1661271123;-0.4541015625;-0.0012646484375;-0.45306396484375;3;;
630;;;;;;;18571.4102681117;-0.45166015625;-0.001259765625;-0.4505615234375;3;;
631;;;;;;;18571.6544091111;-0.44921875;-0.0012548828125;-0.44818115234375;3;;
632;;;;;;;18571.8985501105;-0.44677734375;-0.00125;-0.445709228515625;3;;
633;;;;;;;18572.1426911098;-0.4443359375;-0.001243896484375;-0.443328857421875;3;;
634;;;;;;;18572.3868321092;-0.44189453125;-0.00123687744140625;-0.440826416015625;3;;
635;;;;;;;18572.6309731086;-0.439453125;-0.00123016357421875;-0.43841552734375;3;;
636;;;;;;;18572.875114108;-0.43701171875;-0.0012237548828125;-0.436004638671875;3;;
637;;;;;;;18573.1192551074;-0.4345703125;-0.00121734619140625;-0.43353271484375;3;;
638;;;;;;;18573.3633961068;-0.43212890625;-0.0012103271484375;-0.43109130859375;3;;
639;;;;;;;18573.6075371061;-0.4296875;-0.0012030029296875;-0.428680419921875;3;;
640;;;;;;;18573.8516781055;-0.42724609375;-0.00119537353515625;-0.426239013671875;3;;
641;;;;;;;18574.0958191049;-0.4248046875;-0.0011865234375;-0.423797607421875;3;;
642;;;;;;;18574.3399601043;-0.42236328125;-0.00117828369140625;-0.421417236328125;3;;
643;;;;;;;18574.5841011037;-0.419921875;-0.00116973876953125;-0.4189453125;3;;
644;;;;;;;18574.8282421031;-0.41748046875;-0.00116119384765625;-0.416473388671875;3;;
645;;;;;;;18575.0723831025;-0.4150390625;-0.00115234375;-0.41400146484375;3;;
646;;;;;;;18575.3165241018;-0.41259765625;-0.001142578125;-0.41162109375;3;;
647;;;;;;;18575.5606651012;-0.41015625;-0.0011322021484375;-0.409149169921875;3;;
648;;;;;;;18575.8048061006;-0.40771484375;-0.001121826171875;-0.406768798828125;3;;
649;;;;;;;18576.0489471;-0.4052734375;-0.00111083984375;-0.404327392578125;3;;
650;;;;;;;18576.2930880994;-0.40283203125;-0.00110015869140625;-0.40185546875;3;;
651;;;;;;;18576.5372290988;-0.400390625;-0.00108917236328125;-0.399444580078125;3;;
652;;;;;;;18576.7813700981;-0.39794921875;-0.00107757568359375;-0.39697265625;3;;
653;;;;;;;18577.0255110975;-0.3955078125;-0.00106536865234375;-0.394561767578125;3;;
654;;;;;;;18577.2696520969;-0.39306640625;-0.0010528564453125;-0.392120361328125;3;;
655;;;;;;;18577.5137930963;-0.390625;-0.00103973388671875;-0.38970947265625;3;;
656;;;;;;;18577.7579340957;-0.38818359375;-0.00102691650390625;-0.387298583984375;3;;
657;;;;;;;18578.0020750951;-0.3857421875;-0.0010137939453125;-0.384796142578125;3;;
658;;;;;;;18578.2462160944;-0.38330078125;-0.0010003662109375;-0.382354736328125;3;;
659;;;;;;;18578.4903570938;-0.380859375;-0.0009869384765625;-0.379974365234375;3;;
660;;;;;;;18578.7344980932;-0.37841796875;-0.0009722900390625;-0.377471923828125;3;;
661;;;;;;;18578.9786390926;-0.3759765625;-0.00095733642578125;-0.37506103515625;3;;
662;;;;;;;18579.222780092;-0.37353515625;-0.0009417724609375;-0.372650146484375;3;;
663;;;;;;;18579.4669210914;-0.37109375;-0.000926513671875;-0.370147705078125;3;;
664;;;;;;;18579.7110620907;-0.36865234375;-0.0009112548828125;-0.367767333984375;3;;
665;;;;;;;18579.9552030901;-0.3662109375;-0.00089569091796875;-0.3653564453125;3;;
666;;;;;;;18580.1993440895;-0.36376953125;-0.00087982177734375;-0.362884521484375;3;;
667;;;;;;;18580.4434850889;-0.361328125;-0.0008636474609375;-0.3604736328125;3;;
668;;;;;;;18580.6876260883;-0.35888671875;-0.0008465576171875;-0.357940673828125;3;;
669;;;;;;;18580.9317670877;-0.3564453125;-0.0008294677734375;-0.355560302734375;3;;
670;;;;;;;18581.175908087;-0.35400390625;-0.0008123779296875;-0.353179931640625;3;;
671;;;;;;;18581.4200490864;-0.3515625;-0.0007958984375;-0.3507080078125;3;;
672;;;;;;;18581.6641900858;-0.34912109375;-0.00077880859375;-0.3482666015625;3;;
673;;;;;;;18581.9083310852;-0.3466796875;-0.00076171875;-0.3458251953125;3;;
674;;;;;;;18582.1524720846;-0.34423828125;-0.0007440185546875;-0.343475341796875;3;;
675;;;;;;;18582.396613084;-0.341796875;-0.0007257080078125;-0.340972900390625;3;;
676;;;;;;;18582.6407540833;-0.33935546875;-0.00070770263671875;-0.338531494140625;3;;
677;;;;;;;18582.8848950827;-0.3369140625;-0.000689697265625;-0.33612060546875;3;;
678;;;;;;;18583.1290360821;-0.33447265625;-0.0006719970703125;-0.3336181640625;3;;
679;;;;;;;18583.3731770815;-0.33203125;-0.000654296875;-0.331298828125;3;;
680;;;;;;;18583.6173180809;-0.32958984375;-0.0006365966796875;-0.328826904296875;3;;
681;;;;;;;18583.8614590803;-0.3271484375;-0.00061859130859375;-0.326324462890625;3;;
682;;;;;;;18584.1056000796;-0.32470703125;-0.00060028076171875;-0.323944091796875;3;;
683;;;;;;;18584.349741079;-0.322265625;-0.000582275390625;-0.321502685546875;3;;
684;;;;;;;18584.5938820784;-0.31982421875;-0.00056427001953125;-0.319061279296875;3;;
685;;;;;;;18584.8380230778;-0.3173828125;-0.000546875;-0.316619873046875;3;;
686;;;;;;;18585.0821640772;-0.31494140625;-0.00052947998046875;-0.314178466796875;3;;
687;;;;;;;18585.3263050766;-0.3125;-0.00051239013671875;-0.31170654296875;3;;
688;;;;;;;18585.5704460759;-0.31005859375;-0.000495086669921875;-0.30926513671875;3;;
689;;;;;;;18585.8145870753;-0.3076171875;-0.000477691650390625;-0.306884765625;3;;
690;;;;;;;18586.0587280747;-0.30517578125;-0.000460540771484375;-0.304412841796875;3;;
691;;;;;;;18586.3028690741;-0.302734375;-0.00044384765625;-0.302001953125;3;;
692;;;;;;;18586.5470100735;-0.30029296875;-0.000427581787109375;-0.299530029296875;3;;
693;;;;;;;18586.7911510729;-0.2978515625;-0.0004117431640625;-0.297149658203125;3;;
694;;;;;;;18587.0352920722;-0.29541015625;-0.00039599609375;-0.294677734375;3;;
695;;;;;;;18587.2794330716;-0.29296875;-0.00038031005859375;-0.292266845703125;3;;
696;;;;;;;18587.523574071;-0.29052734375;-0.000364715576171875;-0.289794921875;3;;
697;;;;;;;18587.7677150704;-0.2880859375;-0.000349517822265625;-0.287384033203125;3;;
698;;;;;;;18588.0118560698;-0.28564453125;-0.000334869384765625;-0.284912109375;3;;
699;;;;;;;18588.2559970692;-0.283203125;-0.000320770263671875;-0.282470703125;3;;
700;;;;;;;18588.5001380686;-0.28076171875;-0.000307037353515625;-0.280059814453125;3;;
701;;;;;;;18588.7442790679;-0.2783203125;-0.0002935791015625;-0.27764892578125;3;;
702;;;;;;;18588.9884200673;-0.27587890625;-0.000280242919921875;-0.275146484375;3;;
703;;;;;;;18589.2325610667;-0.2734375;-0.000267333984375;-0.272796630859375;3;;
704;;;;;;;18589.4767020661;-0.27099609375;-0.000254730224609375;-0.270355224609375;3;;
705;;;;;;;18589.7208430655;-0.2685546875;-0.00024267578125;-0.267913818359375;3;;
706;;;;;;;18589.9649840648;-0.26611328125;-0.000231170654296875;-0.265472412109375;3;;
707;;;;;;;18590.2091250642;-0.263671875;-0.000220062255859375;-0.263031005859375;3;;
708;;;;;;;18590.4532660636;-0.26123046875;-0.000209259033203125;-0.26055908203125;3;;
709;;;;;;;18590.697407063;-0.2587890625;-0.00019873046875;-0.2581787109375;3;;
710;;;;;;;18590.9415480624;-0.25634765625;-0.0001884765625;-0.255706787109375;3;;
711;;;;;;;18591.1856890618;-0.25390625;-0.000178680419921875;-0.253265380859375;3;;
712;;;;;;;18591.4298300612;-0.25146484375;-0.00016937255859375;-0.250885009765625;3;;
713;;;;;;;18591.6739710605;-0.2490234375;-0.0001605224609375;-0.2484130859375;3;;
714;;;;;;;18591.9181120599;-0.24658203125;-0.000152069091796875;-0.2459716796875;3;;
715;;;;;;;18592.1622530593;-0.244140625;-0.000143951416015625;-0.2435302734375;3;;
716;;;;;;;18592.4063940587;-0.24169921875;-0.000136077880859375;-0.241119384765625;3;;
717;;;;;;;18592.6505350581;-0.2392578125;-0.000128448486328125;-0.238677978515625;3;;
718;;;;;;;18592.8946760575;-0.23681640625;-0.000121246337890625;-0.2362060546875;3;;
719;;;;;;;18593.1388170568;-0.234375;-0.00011444091796875;-0.2337646484375;3;;
720;;;;;;;18593.3829580562;-0.23193359375;-0.000108062744140625;-0.231353759765625;3;;
721;;;;;;;18593.6270990556;-0.2294921875;-0.000101959228515625;-0.2288818359375;3;;
722;;;;;;;18593.871240055;-0.22705078125;-9.613037109375E-05;-0.226470947265625;3;;
723;;;;;;;18594.1153810544;-0.224609375;-9.051513671875E-05;-0.2239990234375;3;;
724;;;;;;;18594.3595220538;-0.22216796875;-8.5174560546875E-05;-0.22161865234375;3;;
725;;;;;;;18594.6036630531;-0.2197265625;-8.0108642578125E-05;-0.21917724609375;3;;
726;;;;;;;18594.8478040525;-0.21728515625;-7.537841796875E-05;-0.21673583984375;3;;
727;;;;;;;18595.0919450519;-0.21484375;-7.0953369140625E-05;-0.2142333984375;3;;
728;;;;;;;18595.3360860513;-0.21240234375;-6.6802978515625E-05;-0.211761474609375;3;;
729;;;;;;;18595.5802270507;-0.2099609375;-6.2774658203125E-05;-0.209320068359375;3;;
730;;;;;;;18595.8243680501;-0.20751953125;-5.889892578125E-05;-0.206878662109375;3;;
731;;;;;;;18596.0685090494;-0.205078125;-5.5267333984375E-05;-0.204498291015625;3;;
732;;;;;;;18596.3126500488;-0.20263671875;-5.1849365234375E-05;-0.20208740234375;3;;
733;;;;;;;18596.5567910482;-0.2001953125;-4.8675537109375E-05;-0.199676513671875;3;;
734;;;;;;;18596.8009320476;-0.19775390625;-4.5684814453125E-05;-0.19720458984375;3;;
735;;;;;;;18597.045073047;-0.1953125;-4.2877197265625E-05;-0.1947021484375;3;;
736;;;;;;;18597.2892140464;-0.19287109375;-4.01458740234375E-05;-0.19232177734375;3;;
737;;;;;;;18597.5333550457;-0.1904296875;-3.759765625E-05;-0.189849853515625;3;;
738;;;;;;;18597.7774960451;-0.18798828125;-3.516845703125E-05;-0.187469482421875;3;;
739;;;;;;;18598.0216370445;-0.185546875;-3.29132080078125E-05;-0.18505859375;3;;
740;;;;;;;18598.2657780439;-0.18310546875;-3.07830810546875E-05;-0.182525634765625;3;;
741;;;;;;;18598.5099190433;-0.1806640625;-2.8802490234375E-05;-0.180145263671875;3;;
742;;;;;;;18598.7540600427;-0.17822265625;-2.6904296875E-05;-0.177703857421875;3;;
743;;;;;;;18598.998201042;-0.17578125;-2.51617431640625E-05;-0.17529296875;3;;
744;;;;;;;18599.2423420414;-0.17333984375;-2.3492431640625E-05;-0.1728515625;3;;
745;;;;;;;18599.4864830408;-0.1708984375;-2.18719482421875E-05;-0.170379638671875;3;;
746;;;;;;;18599.7306240402;-0.16845703125;-2.041015625E-05;-0.167877197265625;3;;
747;;;;;;;18599.9747650396;-0.166015625;-1.9000244140625E-05;-0.165557861328125;3;;
748;;;;;;;18600.218906039;-0.16357421875;-1.77032470703125E-05;-0.163116455078125;3;;
749;;;;;;;18600.4630470383;-0.1611328125;-1.64886474609375E-05;-0.160675048828125;3;;
750;;;;;;;18600.7071880377;-0.15869140625;-1.53564453125E-05;-0.158233642578125;3;;
751;;;;;;;18600.9513290371;-0.15625;-1.42669677734375E-05;-0.155792236328125;3;;
752;;;;;;;18601.1954700365;-0.15380859375;-1.32415771484375E-05;-0.153411865234375;3;;
753;;;;;;;18601.4396110359;-0.1513671875;-1.22650146484375E-05;-0.150970458984375;3;;
754;;;;;;;18601.6837520353;-0.14892578125;-1.138916015625E-05;-0.148468017578125;3;;
755;;;;;;;18601.9278930346;-0.146484375;-1.0577392578125E-05;-0.146026611328125;3;;
756;;;;;;;18602.172034034;-0.14404296875;-9.7686767578125E-06;-0.143524169921875;3;;
757;;;;;;;18602.4161750334;-0.1416015625;-9.0423583984375E-06;-0.141143798828125;3;;
758;;;;;;;18602.6603160328;-0.13916015625;-8.3343505859375E-06;-0.138702392578125;3;;
759;;;;;;;18602.9044570322;-0.13671875;-7.6934814453125E-06;-0.13629150390625;3;;
760;;;;;;;18603.1485980316;-0.13427734375;-7.086181640625E-06;-0.1339111328125;3;;
761;;;;;;;18603.3927390309;-0.1318359375;-6.536865234375E-06;-0.13140869140625;3;;
762;;;;;;;18603.6368800303;-0.12939453125;-5.987548828125E-06;-0.128997802734375;3;;
763;;;;;;;18603.8810210297;-0.126953125;-5.4779052734375E-06;-0.12652587890625;3;;
764;;;;;;;18604.1251620291;-0.12451171875;-5.01708984375E-06;-0.124114990234375;3;;
765;;;;;;;18604.3693030285;-0.1220703125;-4.6234130859375E-06;-0.12164306640625;3;;
766;;;;;;;18604.6134440279;-0.11962890625;-4.180908203125E-06;-0.119232177734375;3;;
767;;;;;;;18604.8575850273;-0.1171875;-3.80859375E-06;-0.116790771484375;3;;
768;;;;;;;18605.1017260266;-0.11474609375;-3.4259033203125E-06;-0.1142578125;3;;
769;;;;;;;18605.345867026;-0.1123046875;-3.10791015625E-06;-0.11187744140625;3;;
770;;;;;;;18605.5900080254;-0.10986328125;-2.78411865234375E-06;-0.1094970703125;3;;
771;;;;;;;18605.8341490248;-0.107421875;-2.4896240234375E-06;-0.1070556640625;3;;
772;;;;;;;18606.0782900242;-0.10498046875;-2.20794677734375E-06;-0.104644775390625;3;;
773;;;;;;;18606.3224310236;-0.1025390625;-1.9964599609375E-06;-0.1021728515625;3;;
774;;;;;;;18606.5665720229;-0.10009765625;-1.71356201171875E-06;-0.0997314453125;3;;
775;;;;;;;18606.8107130223;-0.09765625;-1.50421142578125E-06;-0.097320556640625;3;;
776;;;;;;;18607.0548540217;-0.09521484375;-1.2841796875E-06;-0.094940185546875;3;;
777;;;;;;;18607.2989950211;-0.0927734375;-1.0797119140625E-06;-0.092498779296875;3;;
778;;;;;;;18607.5431360205;-0.09033203125;-9.0057373046875E-07;-0.09002685546875;3;;
779;;;;;;;18607.7872770199;-0.087890625;-7.244873046875E-07;-0.08758544921875;3;;
780;;;;;;;18608.0314180192;-0.08544921875;-5.74951171875E-07;-0.085113525390625;3;;
781;;;;;;;18608.2755590186;-0.0830078125;-4.058837890625E-07;-0.08270263671875;3;;
782;;;;;;;18608.519700018;-0.08056640625;-2.630615234375E-07;-0.080230712890625;3;;
783;;;;;;;18608.7638410174;-0.078125;-9.82666015625E-08;-0.0780029296875;3;;
784;;;;;;;18609.0079820168;-0.07568359375;-4.2724609375E-09;-0.075225830078125;3;;
785;;;;;;;18609.2521230162;-0.0732421875;1.422119140625E-07;-0.072906494140625;3;;
786;;;;;;;18609.4962640155;-0.07080078125;2.3590087890625E-07;-0.070648193359375;3;;
787;;;;;;;18609.7404050149;-0.068359375;3.271484375E-07;-0.068115234375;3;;
788;;;;;;;18609.9845460143;-0.06591796875;4.3243408203125E-07;-0.065673828125;3;;
789;;;;;;;18610.2286870137;-0.0634765625;5.841064453125E-07;-0.063262939453125;3;;
790;;;;;;;18610.4728280131;-0.06103515625;6.634521484375E-07;-0.06085205078125;3;;
791;;;;;;;18610.7169690125;-0.05859375;7.666015625E-07;-0.0584716796875;3;;
792;;;;;;;18610.9611100118;-0.05615234375;8.6090087890625E-07;-0.0560302734375;3;;
793;;;;;;;18611.2052510112;-0.0537109375;9.1522216796875E-07;-0.053558349609375;3;;
794;;;;;;;18611.4493920106;-0.05126953125;9.735107421875E-07;-0.0511474609375;3;;
795;;;;;;;18611.69353301;-0.048828125;1.0601806640625E-06;-0.048480224609375;3;;
796;;;;;;;18611.9376740094;-0.04638671875;1.14501953125E-06;-0.045965576171875;3;;
797;;;;;;;18612.1818150088;-0.0439453125;1.23809814453125E-06;-0.0435455322265625;3;;
798;;;;;;;18612.4259560081;-0.04150390625;1.2957763671875E-06;-0.0412322998046875;3;;
799;;;;;;;18612.6700970075;-0.0390625;1.3446044921875E-06;-0.03873291015625;3;;
800;;;;;;;18612.9142380069;-0.03662109375;1.40289306640625E-06;-0.0363616943359375;3;;
801;;;;;;;18613.1583790063;-0.0341796875;1.458740234375E-06;-0.0339752197265625;3;;
802;;;;;;;18613.4025200057;-0.03173828125;1.54388427734375E-06;-0.031402587890625;3;;
803;;;;;;;18613.6466610051;-0.029296875;1.60797119140625E-06;-0.028887939453125;3;;
804;;;;;;;18613.8908020044;-0.02685546875;1.658935546875E-06;-0.0265594482421875;3;;
805;;;;;;;18614.1349430038;-0.0244140625;1.69921875E-06;-0.0241729736328125;3;;
806;;;;;;;18614.3790840032;-0.02197265625;1.76971435546875E-06;-0.0217315673828125;3;;
807;;;;;;;18614.6232250026;-0.01953125;1.82464599609375E-06;-0.019268798828125;3;;
808;;;;;;;18614.867366002;-0.01708984375;1.84661865234375E-06;-0.0168212890625;3;;
809;;;;;;;18615.1115070014;-0.0146484375;1.90399169921875E-06;-0.0144256591796875;3;;
810;;;;;;;18615.3556480007;-0.01220703125;1.9537353515625E-06;-0.011968994140625;3;;
811;;;;;;;18615.5997890001;-0.009765625;2.02392578125E-06;-0.00945129394531249;3;;
812;;;;;;;18615.8439299995;-0.00732421875;2.06756591796875E-06;-0.00693664550781251;3;;
813;;;;;;;18616.0880709989;-0.0048828125;2.10479736328125E-06;-0.004473876953125;3;;
814;;;;;;;18616.3322119983;-0.00244140625;2.13348388671875E-06;-0.00211181640624999;3;;
815;;;;;;;18616.5763529977;0;2.16949462890625E-06;0.000244140625;3;;
816;;;;;;;18616.820493997;0.00244140625;2.19329833984375E-06;0.00273742675781249;3;;
817;;;;;;;18617.0646349964;0.0048828125;2.26165771484375E-06;0.00511474609375;3;;
818;;;;;;;18617.3087759958;0.00732421875;2.31201171875E-06;0.00754699707031251;3;;
819;;;;;;;18617.5529169952;0.009765625;2.34954833984375E-06;0.010028076171875;3;;
820;;;;;;;18617.7970579946;0.01220703125;2.38189697265625E-06;0.0124359130859375;3;;
821;;;;;;;18618.041198994;0.009765625;1.986083984375E-06;0.0100067138671875;3;;
822;;;;;;;18618.2853399933;0.00732421875;1.72271728515625E-06;0.0075836181640625;3;;
823;;;;;;;18618.5294809927;0.0048828125;1.55731201171875E-06;0.00504150390624999;3;;
824;;;;;;;18618.7736219921;0.00244140625;1.396484375E-06;0.00267944335937501;3;;
825;;;;;;;18619.0177629915;0;1.25152587890625E-06;0.000219726562499994;3;;
826;;;;;;;18619.2619039909;-0.00244140625;1.13372802734375E-06;-0.00218811035156249;3;;
827;;;;;;;18619.5060449903;-0.0048828125;1.01837158203125E-06;-0.00452880859375;3;;
828;;;;;;;18619.7501859897;-0.00732421875;9.0484619140625E-07;-0.00702514648437499;3;;
829;;;;;;;18619.994326989;-0.009765625;8.013916015625E-07;-0.00942077636718749;3;;
830;;;;;;;18620.2384679884;-0.01220703125;7.2540283203125E-07;-0.0118927001953125;3;;
831;;;;;;;;;;;;;
832;;;;;;;;;;;;;
833;;;;;;;;;;;;;
834;;;;;;;;;;;;;
835;;;;;;;;;;;;;
836;;;;;;;;;;;;;
837;;;;;;;;;;;;;
838;;;;;;;;;;;;;
839;;;;;;;;;;;;;
840;;;;;;;;;;;;;
841;;;;;;;;;;;;;
842;;;;;;;;;;;;;
843;;;;;;;;;;;;;
844;;;;;;;;;;;;;
845;;;;;;;;;;;;;
846;;;;;;;;;;;;;
847;;;;;;;;;;;;;
848;;;;;;;;;;;;;
849;;;;;;;;;;;;;
850;;;;;;;;;;;;;
851;;;;;;;;;;;;;
852;;;;;;;;;;;;;
853;;;;;;;;;;;;;
854;;;;;;;;;;;;;
855;;;;;;;;;;;;;
856;;;;;;;;;;;;;
857;;;;;;;;;;;;;
858;;;;;;;;;;;;;
859;;;;;;;;;;;;;
860;;;;;;;;;;;;;
861;;;;;;;;;;;;;
862;;;;;;;;;;;;;
863;;;;;;;;;;;;;
864;;;;;;;;;;;;;
865;;;;;;;;;;;;;
866;;;;;;;;;;;;;
867;;;;;;;;;;;;;
868;;;;;;;;;;;;;
869;;;;;;;;;;;;;
870;;;;;;;;;;;;;
871;;;;;;;;;;;;;
872;;;;;;;;;;;;;
873;;;;;;;;;;;;;
874;;;;;;;;;;;;;
875;;;;;;;;;;;;;
876;;;;;;;;;;;;;
877;;;;;;;;;;;;;
878;;;;;;;;;;;;;
879;;;;;;;;;;;;;
880;;;;;;;;;;;;;
881;;;;;;;;;;;;;
882;;;;;;;;;;;;;
883;;;;;;;;;;;;;
884;;;;;;;;;;;;;
885;;;;;;;;;;;;;
886;;;;;;;;;;;;;
887;;;;;;;;;;;;;
888;;;;;;;;;;;;;
889;;;;;;;;;;;;;
890;;;;;;;;;;;;;
891;;;;;;;;;;;;;
892;;;;;;;;;;;;;
893;;;;;;;;;;;;;
894;;;;;;;;;;;;;
895;;;;;;;;;;;;;
896;;;;;;;;;;;;;
897;;;;;;;;;;;;;
898;;;;;;;;;;;;;
899;;;;;;;;;;;;;
900;;;;;;;;;;;;;
901;;;;;;;;;;;;;
902;;;;;;;;;;;;;
903;;;;;;;;;;;;;
904;;;;;;;;;;;;;
905;;;;;;;;;;;;;
906;;;;;;;;;;;;;
907;;;;;;;;;;;;;
908;;;;;;;;;;;;;
909;;;;;;;;;;;;;
910;;;;;;;;;;;;;
911;;;;;;;;;;;;;
912;;;;;;;;;;;;;
913;;;;;;;;;;;;;
914;;;;;;;;;;;;;
915;;;;;;;;;;;;;
916;;;;;;;;;;;;;
917;;;;;;;;;;;;;
918;;;;;;;;;;;;;
919;;;;;;;;;;;;;
920;;;;;;;;;;;;;
921;;;;;;;;;;;;;
922;;;;;;;;;;;;;
923;;;;;;;;;;;;;
924;;;;;;;;;;;;;
925;;;;;;;;;;;;;
926;;;;;;;;;;;;;
927;;;;;;;;;;;;;
928;;;;;;;;;;;;;
929;;;;;;;;;;;;;
930;;;;;;;;;;;;;
931;;;;;;;;;;;;;
932;;;;;;;;;;;;;
933;;;;;;;;;;;;;
934;;;;;;;;;;;;;
935;;;;;;;;;;;;;
936;;;;;;;;;;;;;
937;;;;;;;;;;;;;
938;;;;;;;;;;;;;
939;;;;;;;;;;;;;
940;;;;;;;;;;;;;
941;;;;;;;;;;;;;
942;;;;;;;;;;;;;
943;;;;;;;;;;;;;
944;;;;;;;;;;;;;
945;;;;;;;;;;;;;
946;;;;;;;;;;;;;
947;;;;;;;;;;;;;
948;;;;;;;;;;;;;
949;;;;;;;;;;;;;
950;;;;;;;;;;;;;
951;;;;;;;;;;;;;
952;;;;;;;;;;;;;
953;;;;;;;;;;;;;
954;;;;;;;;;;;;;
955;;;;;;;;;;;;;
956;;;;;;;;;;;;;
957;;;;;;;;;;;;;
958;;;;;;;;;;;;;
959;;;;;;;;;;;;;
960;;;;;;;;;;;;;
961;;;;;;;;;;;;;
962;;;;;;;;;;;;;
963;;;;;;;;;;;;;
964;;;;;;;;;;;;;
965;;;;;;;;;;;;;
966;;;;;;;;;;;;;
967;;;;;;;;;;;;;
968;;;;;;;;;;;;;
969;;;;;;;;;;;;;
970;;;;;;;;;;;;;
971;;;;;;;;;;;;;
972;;;;;;;;;;;;;
973;;;;;;;;;;;;;
974;;;;;;;;;;;;;
975;;;;;;;;;;;;;
976;;;;;;;;;;;;;
977;;;;;;;;;;;;;
978;;;;;;;;;;;;;
979;;;;;;;;;;;;;
980;;;;;;;;;;;;;
981;;;;;;;;;;;;;
982;;;;;;;;;;;;;
983;;;;;;;;;;;;;
984;;;;;;;;;;;;;
985;;;;;;;;;;;;;
986;;;;;;;;;;;;;
987;;;;;;;;;;;;;
988;;;;;;;;;;;;;
989;;;;;;;;;;;;;
990;;;;;;;;;;;;;
991;;;;;;;;;;;;;
992;;;;;;;;;;;;;
993;;;;;;;;;;;;;
994;;;;;;;;;;;;;
995;;;;;;;;;;;;;
996;;;;;;;;;;;;;
997;;;;;;;;;;;;;
998;;;;;;;;;;;;;
999;;;;;;;;;;;;;
1000;;;;;;;;;;;;;
1001;;;;;;;;;;;;;
1002;;;;;;;;;;;;;
1003;;;;;;;;;;;;;
1004;;;;;;;;;;;;;
1005;;;;;;;;;;;;;
1006;;;;;;;;;;;;;
1007;;;;;;;;;;;;;
1008;;;;;;;;;;;;;
1009;;;;;;;;;;;;;
1010;;;;;;;;;;;;;
1011;;;;;;;;;;;;;
1012;;;;;;;;;;;;;
1013;;;;;;;;;;;;;
1014;;;;;;;;;;;;;
1015;;;;;;;;;;;;;
1016;;;;;;;;;;;;;
1017;;;;;;;;;;;;;
1018;;;;;;;;;;;;;
1019;;;;;;;;;;;;;
1020;;;;;;;;;;;;;
1021;;;;;;;;;;;;;
1022;;;;;;;;;;;;;
1023;;;;;;;;;;;;;
1024;;;;;;;;;;;;;
1025;;;;;;;;;;;;;
1026;;;;;;;;;;;;;
1027;;;;;;;;;;;;;
1028;;;;;;;;;;;;;
1029;;;;;;;;;;;;;
1030;;;;;;;;;;;;;
1031;;;;;;;;;;;;;
1032;;;;;;;;;;;;;
1033;;;;;;;;;;;;;
1034;;;;;;;;;;;;;
1035;;;;;;;;;;;;;
1036;;;;;;;;;;;;;
1037;;;;;;;;;;;;;
1038;;;;;;;;;;;;;
1039;;;;;;;;;;;;;
1040;;;;;;;;;;;;;
1041;;;;;;;;;;;;;
1042;;;;;;;;;;;;;
1043;;;;;;;;;;;;;
1044;;;;;;;;;;;;;
1045;;;;;;;;;;;;;
1046;;;;;;;;;;;;;
1047;;;;;;;;;;;;;
1048;;;;;;;;;;;;;
1049;;;;;;;;;;;;;
1050;;;;;;;;;;;;;
1051;;;;;;;;;;;;;
1052;;;;;;;;;;;;;
1053;;;;;;;;;;;;;
1054;;;;;;;;;;;;;
1055;;;;;;;;;;;;;
1056;;;;;;;;;;;;;
1057;;;;;;;;;;;;;
1058;;;;;;;;;;;;;
1059;;;;;;;;;;;;;
1060;;;;;;;;;;;;;
1061;;;;;;;;;;;;;
1062;;;;;;;;;;;;;
1063;;;;;;;;;;;;;
1064;;;;;;;;;;;;;
1065;;;;;;;;;;;;;
1066;;;;;;;;;;;;;
1067;;;;;;;;;;;;;
1068;;;;;;;;;;;;;
1069;;;;;;;;;;;;;
1070;;;;;;;;;;;;;
1071;;;;;;;;;;;;;
1072;;;;;;;;;;;;;
1073;;;;;;;;;;;;;
1074;;;;;;;;;;;;;
1075;;;;;;;;;;;;;
1076;;;;;;;;;;;;;
1077;;;;;;;;;;;;;
1078;;;;;;;;;;;;;
1079;;;;;;;;;;;;;
1080;;;;;;;;;;;;;
1081;;;;;;;;;;;;;
1082;;;;;;;;;;;;;
1083;;;;;;;;;;;;;
1084;;;;;;;;;;;;;
1085;;;;;;;;;;;;;
1086;;;;;;;;;;;;;
1087;;;;;;;;;;;;;
1088;;;;;;;;;;;;;
1089;;;;;;;;;;;;;
1090;;;;;;;;;;;;;
1091;;;;;;;;;;;;;
1092;;;;;;;;;;;;;
1093;;;;;;;;;;;;;
1094;;;;;;;;;;;;;
1095;;;;;;;;;;;;;
1096;;;;;;;;;;;;;
1097;;;;;;;;;;;;;
1098;;;;;;;;;;;;;
1099;;;;;;;;;;;;;
1100;;;;;;;;;;;;;
1101;;;;;;;;;;;;;
1102;;;;;;;;;;;;;
1103;;;;;;;;;;;;;
1104;;;;;;;;;;;;;
1105;;;;;;;;;;;;;
1106;;;;;;;;;;;;;
1107;;;;;;;;;;;;;
1108;;;;;;;;;;;;;
1109;;;;;;;;;;;;;
1110;;;;;;;;;;;;;
1111;;;;;;;;;;;;;
1112;;;;;;;;;;;;;
1113;;;;;;;;;;;;;
1114;;;;;;;;;;;;;
1115;;;;;;;;;;;;;
1116;;;;;;;;;;;;;
1117;;;;;;;;;;;;;
1118;;;;;;;;;;;;;
1119;;;;;;;;;;;;;
1120;;;;;;;;;;;;;
1121;;;;;;;;;;;;;
1122;;;;;;;;;;;;;
1123;;;;;;;;;;;;;
1124;;;;;;;;;;;;;
1125;;;;;;;;;;;;;
1126;;;;;;;;;;;;;
1127;;;;;;;;;;;;;
1128;;;;;;;;;;;;;
1129;;;;;;;;;;;;;
1130;;;;;;;;;;;;;
1131;;;;;;;;;;;;;
1132;;;;;;;;;;;;;
1133;;;;;;;;;;;;;
1134;;;;;;;;;;;;;
1135;;;;;;;;;;;;;
1136;;;;;;;;;;;;;
1137;;;;;;;;;;;;;
1138;;;;;;;;;;;;;
1139;;;;;;;;;;;;;
1140;;;;;;;;;;;;;
1141;;;;;;;;;;;;;
1142;;;;;;;;;;;;;
1143;;;;;;;;;;;;;
1144;;;;;;;;;;;;;
1145;;;;;;;;;;;;;
1146;;;;;;;;;;;;;
1147;;;;;;;;;;;;;
1148;;;;;;;;;;;;;
1149;;;;;;;;;;;;;
1150;;;;;;;;;;;;;
1151;;;;;;;;;;;;;
1152;;;;;;;;;;;;;
1153;;;;;;;;;;;;;
1154;;;;;;;;;;;;;
1155;;;;;;;;;;;;;
1156;;;;;;;;;;;;;
1157;;;;;;;;;;;;;
1158;;;;;;;;;;;;;
1159;;;;;;;;;;;;;
1160;;;;;;;;;;;;;
1161;;;;;;;;;;;;;
1162;;;;;;;;;;;;;
1163;;;;;;;;;;;;;
1164;;;;;;;;;;;;;
1165;;;;;;;;;;;;;
1166;;;;;;;;;;;;;
1167;;;;;;;;;;;;;
1168;;;;;;;;;;;;;
1169;;;;;;;;;;;;;
1170;;;;;;;;;;;;;
1171;;;;;;;;;;;;;
1172;;;;;;;;;;;;;
1173;;;;;;;;;;;;;
1174;;;;;;;;;;;;;
1175;;;;;;;;;;;;;
1176;;;;;;;;;;;;;
1177;;;;;;;;;;;;;
1178;;;;;;;;;;;;;
1179;;;;;;;;;;;;;
1180;;;;;;;;;;;;;
1181;;;;;;;;;;;;;
1182;;;;;;;;;;;;;
1183;;;;;;;;;;;;;
1184;;;;;;;;;;;;;
1185;;;;;;;;;;;;;
1186;;;;;;;;;;;;;
1187;;;;;;;;;;;;;
1188;;;;;;;;;;;;;
1189;;;;;;;;;;;;;
1190;;;;;;;;;;;;;
1191;;;;;;;;;;;;;
1192;;;;;;;;;;;;;
1193;;;;;;;;;;;;;
1194;;;;;;;;;;;;;
1195;;;;;;;;;;;;;
1196;;;;;;;;;;;;;
1197;;;;;;;;;;;;;
1198;;;;;;;;;;;;;
1199;;;;;;;;;;;;;
1200;;;;;;;;;;;;;
1201;;;;;;;;;;;;;
1202;;;;;;;;;;;;;
1203;;;;;;;;;;;;;
1204;;;;;;;;;;;;;
1205;;;;;;;;;;;;;
1206;;;;;;;;;;;;;
1207;;;;;;;;;;;;;
1208;;;;;;;;;;;;;
1209;;;;;;;;;;;;;
1210;;;;;;;;;;;;;
1211;;;;;;;;;;;;;
1212;;;;;;;;;;;;;
1213;;;;;;;;;;;;;
1214;;;;;;;;;;;;;
1215;;;;;;;;;;;;;
1216;;;;;;;;;;;;;
1217;;;;;;;;;;;;;
1218;;;;;;;;;;;;;
1219;;;;;;;;;;;;;
1220;;;;;;;;;;;;;
1221;;;;;;;;;;;;;
1222;;;;;;;;;;;;;
1223;;;;;;;;;;;;;
1224;;;;;;;;;;;;;
1225;;;;;;;;;;;;;
1226;;;;;;;;;;;;;
1227;;;;;;;;;;;;;
1228;;;;;;;;;;;;;
1229;;;;;;;;;;;;;
1230;;;;;;;;;;;;;
1231;;;;;;;;;;;;;
1232;;;;;;;;;;;;;
1233;;;;;;;;;;;;;
1234;;;;;;;;;;;;;
1235;;;;;;;;;;;;;
1236;;;;;;;;;;;;;
1237;;;;;;;;;;;;;
1238;;;;;;;;;;;;;
1239;;;;;;;;;;;;;
1240;;;;;;;;;;;;;
1241;;;;;;;;;;;;;
1242;;;;;;;;;;;;;
1243;;;;;;;;;;;;;
1244;;;;;;;;;;;;;
1245;;;;;;;;;;;;;
1246;;;;;;;;;;;;;
1247;;;;;;;;;;;;;
1248;;;;;;;;;;;;;
1249;;;;;;;;;;;;;
1250;;;;;;;;;;;;;
1251;;;;;;;;;;;;;
1252;;;;;;;;;;;;;
1253;;;;;;;;;;;;;
1254;;;;;;;;;;;;;
1255;;;;;;;;;;;;;
1256;;;;;;;;;;;;;
1257;;;;;;;;;;;;;
1258;;;;;;;;;;;;;
1259;;;;;;;;;;;;;
1260;;;;;;;;;;;;;
1261;;;;;;;;;;;;;
1262;;;;;;;;;;;;;
1263;;;;;;;;;;;;;
1264;;;;;;;;;;;;;
1265;;;;;;;;;;;;;
1266;;;;;;;;;;;;;
1267;;;;;;;;;;;;;
1268;;;;;;;;;;;;;
1269;;;;;;;;;;;;;
1270;;;;;;;;;;;;;
1271;;;;;;;;;;;;;
1272;;;;;;;;;;;;;
1273;;;;;;;;;;;;;
1274;;;;;;;;;;;;;
1275;;;;;;;;;;;;;
1276;;;;;;;;;;;;;
1277;;;;;;;;;;;;;
1278;;;;;;;;;;;;;
1279;;;;;;;;;;;;;
1280;;;;;;;;;;;;;
1281;;;;;;;;;;;;;
1282;;;;;;;;;;;;;
1283;;;;;;;;;;;;;
1284;;;;;;;;;;;;;
1285;;;;;;;;;;;;;
1286;;;;;;;;;;;;;
1287;;;;;;;;;;;;;
1288;;;;;;;;;;;;;
1289;;;;;;;;;;;;;
1290;;;;;;;;;;;;;
1291;;;;;;;;;;;;;
1292;;;;;;;;;;;;;
1293;;;;;;;;;;;;;
1294;;;;;;;;;;;;;
1295;;;;;;;;;;;;;
1296;;;;;;;;;;;;;
1297;;;;;;;;;;;;;
1298;;;;;;;;;;;;;
1299;;;;;;;;;;;;;
1300;;;;;;;;;;;;;
1301;;;;;;;;;;;;;
1302;;;;;;;;;;;;;
1303;;;;;;;;;;;;;
1304;;;;;;;;;;;;;
1305;;;;;;;;;;;;;
1306;;;;;;;;;;;;;
1307;;;;;;;;;;;;;
1308;;;;;;;;;;;;;
1309;;;;;;;;;;;;;
1310;;;;;;;;;;;;;
1311;;;;;;;;;;;;;
1312;;;;;;;;;;;;;
1313;;;;;;;;;;;;;
1314;;;;;;;;;;;;;
1315;;;;;;;;;;;;;
1316;;;;;;;;;;;;;
1317;;;;;;;;;;;;;
1318;;;;;;;;;;;;;
1319;;;;;;;;;;;;;
1320;;;;;;;;;;;;;
1321;;;;;;;;;;;;;
1322;;;;;;;;;;;;;
1323;;;;;;;;;;;;;
1324;;;;;;;;;;;;;
1325;;;;;;;;;;;;;
1326;;;;;;;;;;;;;
1327;;;;;;;;;;;;;
1328;;;;;;;;;;;;;
1329;;;;;;;;;;;;;
1330;;;;;;;;;;;;;
1331;;;;;;;;;;;;;
1332;;;;;;;;;;;;;
1333;;;;;;;;;;;;;
1334;;;;;;;;;;;;;
1335;;;;;;;;;;;;;
1336;;;;;;;;;;;;;
1337;;;;;;;;;;;;;
1338;;;;;;;;;;;;;
1339;;;;;;;;;;;;;
1340;;;;;;;;;;;;;
1341;;;;;;;;;;;;;
1342;;;;;;;;;;;;;
1343;;;;;;;;;;;;;
1344;;;;;;;;;;;;;
1345;;;;;;;;;;;;;
1346;;;;;;;;;;;;;
1347;;;;;;;;;;;;;
1348;;;;;;;;;;;;;
1349;;;;;;;;;;;;;
1350;;;;;;;;;;;;;
1351;;;;;;;;;;;;;
1352;;;;;;;;;;;;;
1353;;;;;;;;;;;;;
1354;;;;;;;;;;;;;
1355;;;;;;;;;;;;;
1356;;;;;;;;;;;;;
1357;;;;;;;;;;;;;
1358;;;;;;;;;;;;;
1359;;;;;;;;;;;;;
1360;;;;;;;;;;;;;
1361;;;;;;;;;;;;;
1362;;;;;;;;;;;;;
1363;;;;;;;;;;;;;
1364;;;;;;;;;;;;;
1365;;;;;;;;;;;;;
1366;;;;;;;;;;;;;
1367;;;;;;;;;;;;;
1368;;;;;;;;;;;;;
1369;;;;;;;;;;;;;
1370;;;;;;;;;;;;;
1371;;;;;;;;;;;;;
1372;;;;;;;;;;;;;
1373;;;;;;;;;;;;;
1374;;;;;;;;;;;;;
1375;;;;;;;;;;;;;
1376;;;;;;;;;;;;;
1377;;;;;;;;;;;;;
1378;;;;;;;;;;;;;
1379;;;;;;;;;;;;;
1380;;;;;;;;;;;;;
1381;;;;;;;;;;;;;
1382;;;;;;;;;;;;;
1383;;;;;;;;;;;;;
1384;;;;;;;;;;;;;
1385;;;;;;;;;;;;;
1386;;;;;;;;;;;;;
1387;;;;;;;;;;;;;
1388;;;;;;;;;;;;;
1389;;;;;;;;;;;;;
1390;;;;;;;;;;;;;
1391;;;;;;;;;;;;;
1392;;;;;;;;;;;;;
1393;;;;;;;;;;;;;
1394;;;;;;;;;;;;;
1395;;;;;;;;;;;;;
1396;;;;;;;;;;;;;
1397;;;;;;;;;;;;;
1398;;;;;;;;;;;;;
1399;;;;;;;;;;;;;
1400;;;;;;;;;;;;;
1401;;;;;;;;;;;;;
1402;;;;;;;;;;;;;
1403;;;;;;;;;;;;;
1404;;;;;;;;;;;;;
1405;;;;;;;;;;;;;
1406;;;;;;;;;;;;;
1407;;;;;;;;;;;;;
1408;;;;;;;;;;;;;
1409;;;;;;;;;;;;;
1410;;;;;;;;;;;;;
1411;;;;;;;;;;;;;
1412;;;;;;;;;;;;;
1413;;;;;;;;;;;;;
1414;;;;;;;;;;;;;
1415;;;;;;;;;;;;;
1416;;;;;;;;;;;;;
1417;;;;;;;;;;;;;
1418;;;;;;;;;;;;;
1419;;;;;;;;;;;;;
1420;;;;;;;;;;;;;
1421;;;;;;;;;;;;;
1422;;;;;;;;;;;;;
1423;;;;;;;;;;;;;
1424;;;;;;;;;;;;;
1425;;;;;;;;;;;;;
1426;;;;;;;;;;;;;
1427;;;;;;;;;;;;;
1428;;;;;;;;;;;;;
1429;;;;;;;;;;;;;
1430;;;;;;;;;;;;;
1431;;;;;;;;;;;;;
1432;;;;;;;;;;;;;
1433;;;;;;;;;;;;;
1434;;;;;;;;;;;;;
1435;;;;;;;;;;;;;
1436;;;;;;;;;;;;;
1437;;;;;;;;;;;;;
1438;;;;;;;;;;;;;
1439;;;;;;;;;;;;;
1440;;;;;;;;;;;;;
1441;;;;;;;;;;;;;
1442;;;;;;;;;;;;;
1443;;;;;;;;;;;;;
1444;;;;;;;;;;;;;
1445;;;;;;;;;;;;;
1446;;;;;;;;;;;;;
1447;;;;;;;;;;;;;
1448;;;;;;;;;;;;;
1449;;;;;;;;;;;;;
1450;;;;;;;;;;;;;
1451;;;;;;;;;;;;;
1452;;;;;;;;;;;;;
1453;;;;;;;;;;;;;
1454;;;;;;;;;;;;;
1455;;;;;;;;;;;;;
1456;;;;;;;;;;;;;
1457;;;;;;;;;;;;;
1458;;;;;;;;;;;;;
1459;;;;;;;;;;;;;
1460;;;;;;;;;;;;;
1461;;;;;;;;;;;;;
1462;;;;;;;;;;;;;
1463;;;;;;;;;;;;;
1464;;;;;;;;;;;;;
1465;;;;;;;;;;;;;
1466;;;;;;;;;;;;;
1467;;;;;;;;;;;;;
1468;;;;;;;;;;;;;
1469;;;;;;;;;;;;;
1470;;;;;;;;;;;;;
1471;;;;;;;;;;;;;
1472;;;;;;;;;;;;;
1473;;;;;;;;;;;;;
1474;;;;;;;;;;;;;
1475;;;;;;;;;;;;;
1476;;;;;;;;;;;;;
1477;;;;;;;;;;;;;
1478;;;;;;;;;;;;;
1479;;;;;;;;;;;;;
1480;;;;;;;;;;;;;
1481;;;;;;;;;;;;;
1482;;;;;;;;;;;;;
1483;;;;;;;;;;;;;
1484;;;;;;;;;;;;;
1485;;;;;;;;;;;;;
1486;;;;;;;;;;;;;
1487;;;;;;;;;;;;;
1488;;;;;;;;;;;;;
1489;;;;;;;;;;;;;
1490;;;;;;;;;;;;;
1491;;;;;;;;;;;;;
1492;;;;;;;;;;;;;
1493;;;;;;;;;;;;;
1494;;;;;;;;;;;;;
1495;;;;;;;;;;;;;
1496;;;;;;;;;;;;;
1497;;;;;;;;;;;;;
1498;;;;;;;;;;;;;
1499;;;;;;;;;;;;;
1500;;;;;;;;;;;;;
1501;;;;;;;;;;;;;
1502;;;;;;;;;;;;;
1503;;;;;;;;;;;;;
1504;;;;;;;;;;;;;
1505;;;;;;;;;;;;;
1506;;;;;;;;;;;;;
1507;;;;;;;;;;;;;
1508;;;;;;;;;;;;;
1509;;;;;;;;;;;;;
1510;;;;;;;;;;;;;
1511;;;;;;;;;;;;;
1512;;;;;;;;;;;;;
1513;;;;;;;;;;;;;
1514;;;;;;;;;;;;;
1515;;;;;;;;;;;;;
1516;;;;;;;;;;;;;
1517;;;;;;;;;;;;;
1518;;;;;;;;;;;;;
1519;;;;;;;;;;;;;
1520;;;;;;;;;;;;;
1521;;;;;;;;;;;;;
1522;;;;;;;;;;;;;
1523;;;;;;;;;;;;;
1524;;;;;;;;;;;;;
1525;;;;;;;;;;;;;
1526;;;;;;;;;;;;;
1527;;;;;;;;;;;;;
1528;;;;;;;;;;;;;
1529;;;;;;;;;;;;;
1530;;;;;;;;;;;;;
1531;;;;;;;;;;;;;
1532;;;;;;;;;;;;;
1533;;;;;;;;;;;;;
1534;;;;;;;;;;;;;
1535;;;;;;;;;;;;;
1536;;;;;;;;;;;;;
1537;;;;;;;;;;;;;
1538;;;;;;;;;;;;;
1539;;;;;;;;;;;;;
1540;;;;;;;;;;;;;
1541;;;;;;;;;;;;;
1542;;;;;;;;;;;;;
1543;;;;;;;;;;;;;
1544;;;;;;;;;;;;;
1545;;;;;;;;;;;;;
1546;;;;;;;;;;;;;
1547;;;;;;;;;;;;;
1548;;;;;;;;;;;;;
1549;;;;;;;;;;;;;
1550;;;;;;;;;;;;;
1551;;;;;;;;;;;;;
1552;;;;;;;;;;;;;
1553;;;;;;;;;;;;;
1554;;;;;;;;;;;;;
1555;;;;;;;;;;;;;
1556;;;;;;;;;;;;;
1557;;;;;;;;;;;;;
1558;;;;;;;;;;;;;
1559;;;;;;;;;;;;;
1560;;;;;;;;;;;;;
1561;;;;;;;;;;;;;
1562;;;;;;;;;;;;;
1563;;;;;;;;;;;;;
1564;;;;;;;;;;;;;
1565;;;;;;;;;;;;;
1566;;;;;;;;;;;;;
1567;;;;;;;;;;;;;
1568;;;;;;;;;;;;;
1569;;;;;;;;;;;;;
1570;;;;;;;;;;;;;
1571;;;;;;;;;;;;;
1572;;;;;;;;;;;;;
1573;;;;;;;;;;;;;
1574;;;;;;;;;;;;;
1575;;;;;;;;;;;;;
1576;;;;;;;;;;;;;
1577;;;;;;;;;;;;;
1578;;;;;;;;;;;;;
1579;;;;;;;;;;;;;
1580;;;;;;;;;;;;;
1581;;;;;;;;;;;;;
1582;;;;;;;;;;;;;
1583;;;;;;;;;;;;;
1584;;;;;;;;;;;;;
1585;;;;;;;;;;;;;
1586;;;;;;;;;;;;;
1587;;;;;;;;;;;;;
1588;;;;;;;;;;;;;
1589;;;;;;;;;;;;;
1590;;;;;;;;;;;;;
1591;;;;;;;;;;;;;
1592;;;;;;;;;;;;;
1593;;;;;;;;;;;;;
1594;;;;;;;;;;;;;
1595;;;;;;;;;;;;;
1596;;;;;;;;;;;;;
1597;;;;;;;;;;;;;
1598;;;;;;;;;;;;;
1599;;;;;;;;;;;;;
1600;;;;;;;;;;;;;
1601;;;;;;;;;;;;;
1602;;;;;;;;;;;;;
1603;;;;;;;;;;;;;
1604;;;;;;;;;;;;;
1605;;;;;;;;;;;;;
1606;;;;;;;;;;;;;
1607;;;;;;;;;;;;;
1608;;;;;;;;;;;;;
1609;;;;;;;;;;;;;
1610;;;;;;;;;;;;;
1611;;;;;;;;;;;;;
1612;;;;;;;;;;;;;
1613;;;;;;;;;;;;;
1614;;;;;;;;;;;;;
1615;;;;;;;;;;;;;
1616;;;;;;;;;;;;;
1617;;;;;;;;;;;;;
1618;;;;;;;;;;;;;
1619;;;;;;;;;;;;;
1620;;;;;;;;;;;;;
1621;;;;;;;;;;;;;
1622;;;;;;;;;;;;;
1623;;;;;;;;;;;;;
1624;;;;;;;;;;;;;
1625;;;;;;;;;;;;;
1626;;;;;;;;;;;;;
1627;;;;;;;;;;;;;
1628;;;;;;;;;;;;;
1629;;;;;;;;;;;;;
1630;;;;;;;;;;;;;
1631;;;;;;;;;;;;;
1632;;;;;;;;;;;;;
1633;;;;;;;;;;;;;
1634;;;;;;;;;;;;;
1635;;;;;;;;;;;;;
1636;;;;;;;;;;;;;
1637;;;;;;;;;;;;;
1638;;;;;;;;;;;;;
1639;;;;;;;;;;;;;
1640;;;;;;;;;;;;;
1641;;;;;;;;;;;;;
1642;;;;;;;;;;;;;
1643;;;;;;;;;;;;;
1644;;;;;;;;;;;;;
1645;;;;;;;;;;;;;
1646;;;;;;;;;;;;;
1647;;;;;;;;;;;;;
1648;;;;;;;;;;;;;
1649;;;;;;;;;;;;;
1650;;;;;;;;;;;;;
1651;;;;;;;;;;;;;
1652;;;;;;;;;;;;;
1653;;;;;;;;;;;;;
1654;;;;;;;;;;;;;
1655;;;;;;;;;;;;;
1656;;;;;;;;;;;;;
1657;;;;;;;;;;;;;
1658;;;;;;;;;;;;;
1659;;;;;;;;;;;;;
1660;;;;;;;;;;;;;
1661;;;;;;;;;;;;;
1662;;;;;;;;;;;;;
1663;;;;;;;;;;;;;
1664;;;;;;;;;;;;;
1665;;;;;;;;;;;;;
1666;;;;;;;;;;;;;
1667;;;;;;;;;;;;;
1668;;;;;;;;;;;;;
1669;;;;;;;;;;;;;
1670;;;;;;;;;;;;;
1671;;;;;;;;;;;;;
1672;;;;;;;;;;;;;
1673;;;;;;;;;;;;;
1674;;;;;;;;;;;;;
1675;;;;;;;;;;;;;
1676;;;;;;;;;;;;;
1677;;;;;;;;;;;;;
1678;;;;;;;;;;;;;
1679;;;;;;;;;;;;;
1680;;;;;;;;;;;;;
1681;;;;;;;;;;;;;
1682;;;;;;;;;;;;;
1683;;;;;;;;;;;;;
1684;;;;;;;;;;;;;
1685;;;;;;;;;;;;;
1686;;;;;;;;;;;;;
1687;;;;;;;;;;;;;
1688;;;;;;;;;;;;;
1689;;;;;;;;;;;;;
1690;;;;;;;;;;;;;
1691;;;;;;;;;;;;;
1692;;;;;;;;;;;;;
1693;;;;;;;;;;;;;
1694;;;;;;;;;;;;;
1695;;;;;;;;;;;;;
1696;;;;;;;;;;;;;
1697;;;;;;;;;;;;;
1698;;;;;;;;;;;;;
1699;;;;;;;;;;;;;
1700;;;;;;;;;;;;;
1701;;;;;;;;;;;;;
1702;;;;;;;;;;;;;
1703;;;;;;;;;;;;;
1704;;;;;;;;;;;;;
1705;;;;;;;;;;;;;
1706;;;;;;;;;;;;;
1707;;;;;;;;;;;;;
1708;;;;;;;;;;;;;
1709;;;;;;;;;;;;;
1710;;;;;;;;;;;;;
1711;;;;;;;;;;;;;
1712;;;;;;;;;;;;;
1713;;;;;;;;;;;;;
1714;;;;;;;;;;;;;
1715;;;;;;;;;;;;;
1716;;;;;;;;;;;;;
1717;;;;;;;;;;;;;
1718;;;;;;;;;;;;;
1719;;;;;;;;;;;;;
1720;;;;;;;;;;;;;
1721;;;;;;;;;;;;;
1722;;;;;;;;;;;;;
1723;;;;;;;;;;;;;
1724;;;;;;;;;;;;;
1725;;;;;;;;;;;;;
1726;;;;;;;;;;;;;
1727;;;;;;;;;;;;;
1728;;;;;;;;;;;;;
1729;;;;;;;;;;;;;
1730;;;;;;;;;;;;;
1731;;;;;;;;;;;;;
1732;;;;;;;;;;;;;
1733;;;;;;;;;;;;;
1734;;;;;;;;;;;;;
1735;;;;;;;;;;;;;
1736;;;;;;;;;;;;;
1737;;;;;;;;;;;;;
1738;;;;;;;;;;;;;
1739;;;;;;;;;;;;;
1740;;;;;;;;;;;;;
1741;;;;;;;;;;;;;
1742;;;;;;;;;;;;;
1743;;;;;;;;;;;;;
1744;;;;;;;;;;;;;
1745;;;;;;;;;;;;;
1746;;;;;;;;;;;;;
1747;;;;;;;;;;;;;
1748;;;;;;;;;;;;;
1749;;;;;;;;;;;;;
1750;;;;;;;;;;;;;
1751;;;;;;;;;;;;;
1752;;;;;;;;;;;;;
1753;;;;;;;;;;;;;
1754;;;;;;;;;;;;;
1755;;;;;;;;;;;;;
1756;;;;;;;;;;;;;
1757;;;;;;;;;;;;;
1758;;;;;;;;;;;;;
1759;;;;;;;;;;;;;
1760;;;;;;;;;;;;;
1761;;;;;;;;;;;;;
1762;;;;;;;;;;;;;
1763;;;;;;;;;;;;;
1764;;;;;;;;;;;;;
1765;;;;;;;;;;;;;
1766;;;;;;;;;;;;;
1767;;;;;;;;;;;;;
1768;;;;;;;;;;;;;
1769;;;;;;;;;;;;;
1770;;;;;;;;;;;;;
1771;;;;;;;;;;;;;
1772;;;;;;;;;;;;;
1773;;;;;;;;;;;;;
1774;;;;;;;;;;;;;
1775;;;;;;;;;;;;;
1776;;;;;;;;;;;;;
1777;;;;;;;;;;;;;
1778;;;;;;;;;;;;;
1779;;;;;;;;;;;;;
1780;;;;;;;;;;;;;
1781;;;;;;;;;;;;;
1782;;;;;;;;;;;;;
1783;;;;;;;;;;;;;
1784;;;;;;;;;;;;;
1785;;;;;;;;;;;;;
1786;;;;;;;;;;;;;
1787;;;;;;;;;;;;;
1788;;;;;;;;;;;;;
1789;;;;;;;;;;;;;
1790;;;;;;;;;;;;;
1791;;;;;;;;;;;;;
1792;;;;;;;;;;;;;
1793;;;;;;;;;;;;;
1794;;;;;;;;;;;;;
1795;;;;;;;;;;;;;
1796;;;;;;;;;;;;;
1797;;;;;;;;;;;;;
1798;;;;;;;;;;;;;
1799;;;;;;;;;;;;;
1800;;;;;;;;;;;;;
1801;;;;;;;;;;;;;
1802;;;;;;;;;;;;;
1803;;;;;;;;;;;;;
1804;;;;;;;;;;;;;
1805;;;;;;;;;;;;;
1806;;;;;;;;;;;;;
1807;;;;;;;;;;;;;
1808;;;;;;;;;;;;;
1809;;;;;;;;;;;;;
1810;;;;;;;;;;;;;
1811;;;;;;;;;;;;;
1812;;;;;;;;;;;;;
1813;;;;;;;;;;;;;
1814;;;;;;;;;;;;;
1815;;;;;;;;;;;;;
1816;;;;;;;;;;;;;
1817;;;;;;;;;;;;;
1818;;;;;;;;;;;;;
1819;;;;;;;;;;;;;
1820;;;;;;;;;;;;;
1821;;;;;;;;;;;;;
1822;;;;;;;;;;;;;
1823;;;;;;;;;;;;;
1824;;;;;;;;;;;;;
1825;;;;;;;;;;;;;
1826;;;;;;;;;;;;;
1827;;;;;;;;;;;;;
1828;;;;;;;;;;;;;
1829;;;;;;;;;;;;;
1830;;;;;;;;;;;;;
1831;;;;;;;;;;;;;
1832;;;;;;;;;;;;;
1833;;;;;;;;;;;;;
1834;;;;;;;;;;;;;
1835;;;;;;;;;;;;;
1836;;;;;;;;;;;;;
1837;;;;;;;;;;;;;
1838;;;;;;;;;;;;;
1839;;;;;;;;;;;;;
1840;;;;;;;;;;;;;
1841;;;;;;;;;;;;;
1842;;;;;;;;;;;;;
1843;;;;;;;;;;;;;
1844;;;;;;;;;;;;;
1845;;;;;;;;;;;;;
1846;;;;;;;;;;;;;
1847;;;;;;;;;;;;;
1848;;;;;;;;;;;;;
1849;;;;;;;;;;;;;
1850;;;;;;;;;;;;;
1851;;;;;;;;;;;;;
1852;;;;;;;;;;;;;
1853;;;;;;;;;;;;;
1854;;;;;;;;;;;;;
1855;;;;;;;;;;;;;
1856;;;;;;;;;;;;;
1857;;;;;;;;;;;;;
1858;;;;;;;;;;;;;
1859;;;;;;;;;;;;;
1860;;;;;;;;;;;;;
1861;;;;;;;;;;;;;
1862;;;;;;;;;;;;;
1863;;;;;;;;;;;;;
1864;;;;;;;;;;;;;
1865;;;;;;;;;;;;;
1866;;;;;;;;;;;;;
1867;;;;;;;;;;;;;
1868;;;;;;;;;;;;;
1869;;;;;;;;;;;;;
1870;;;;;;;;;;;;;
1871;;;;;;;;;;;;;
1872;;;;;;;;;;;;;
1873;;;;;;;;;;;;;
1874;;;;;;;;;;;;;
1875;;;;;;;;;;;;;
1876;;;;;;;;;;;;;
1877;;;;;;;;;;;;;
1878;;;;;;;;;;;;;
1879;;;;;;;;;;;;;
1880;;;;;;;;;;;;;
1881;;;;;;;;;;;;;
1882;;;;;;;;;;;;;
1883;;;;;;;;;;;;;
1884;;;;;;;;;;;;;
1885;;;;;;;;;;;;;
1886;;;;;;;;;;;;;
1887;;;;;;;;;;;;;
1888;;;;;;;;;;;;;
1889;;;;;;;;;;;;;
1890;;;;;;;;;;;;;
1891;;;;;;;;;;;;;
1892;;;;;;;;;;;;;
1893;;;;;;;;;;;;;
1894;;;;;;;;;;;;;
1895;;;;;;;;;;;;;
1896;;;;;;;;;;;;;
1897;;;;;;;;;;;;;
1898;;;;;;;;;;;;;
1899;;;;;;;;;;;;;
1900;;;;;;;;;;;;;
1901;;;;;;;;;;;;;
1902;;;;;;;;;;;;;
1903;;;;;;;;;;;;;
1904;;;;;;;;;;;;;
1905;;;;;;;;;;;;;
1906;;;;;;;;;;;;;
1907;;;;;;;;;;;;;
1908;;;;;;;;;;;;;
1909;;;;;;;;;;;;;
1910;;;;;;;;;;;;;
1911;;;;;;;;;;;;;
1912;;;;;;;;;;;;;
1913;;;;;;;;;;;;;
1914;;;;;;;;;;;;;
1915;;;;;;;;;;;;;
1916;;;;;;;;;;;;;
1917;;;;;;;;;;;;;
1918;;;;;;;;;;;;;
1919;;;;;;;;;;;;;
1920;;;;;;;;;;;;;
1921;;;;;;;;;;;;;
1922;;;;;;;;;;;;;
1923;;;;;;;;;;;;;
1924;;;;;;;;;;;;;
1925;;;;;;;;;;;;;
1926;;;;;;;;;;;;;
1927;;;;;;;;;;;;;
1928;;;;;;;;;;;;;
1929;;;;;;;;;;;;;
1930;;;;;;;;;;;;;
1931;;;;;;;;;;;;;
1932;;;;;;;;;;;;;
1933;;;;;;;;;;;;;
1934;;;;;;;;;;;;;
1935;;;;;;;;;;;;;
1936;;;;;;;;;;;;;
1937;;;;;;;;;;;;;
1938;;;;;;;;;;;;;
1939;;;;;;;;;;;;;
1940;;;;;;;;;;;;;
1941;;;;;;;;;;;;;
1942;;;;;;;;;;;;;
1943;;;;;;;;;;;;;
1944;;;;;;;;;;;;;
1945;;;;;;;;;;;;;
1946;;;;;;;;;;;;;
1947;;;;;;;;;;;;;
1948;;;;;;;;;;;;;
1949;;;;;;;;;;;;;
1950;;;;;;;;;;;;;
1951;;;;;;;;;;;;;
1952;;;;;;;;;;;;;
1953;;;;;;;;;;;;;
1954;;;;;;;;;;;;;
1955;;;;;;;;;;;;;
1956;;;;;;;;;;;;;
1957;;;;;;;;;;;;;
1958;;;;;;;;;;;;;
1959;;;;;;;;;;;;;
1960;;;;;;;;;;;;;
1961;;;;;;;;;;;;;
1962;;;;;;;;;;;;;
1963;;;;;;;;;;;;;
1964;;;;;;;;;;;;;
1965;;;;;;;;;;;;;
1966;;;;;;;;;;;;;
1967;;;;;;;;;;;;;
1968;;;;;;;;;;;;;
1969;;;;;;;;;;;;;
1970;;;;;;;;;;;;;
1971;;;;;;;;;;;;;
1972;;;;;;;;;;;;;
1973;;;;;;;;;;;;;
1974;;;;;;;;;;;;;
1975;;;;;;;;;;;;;
1976;;;;;;;;;;;;;
1977;;;;;;;;;;;;;
1978;;;;;;;;;;;;;
1979;;;;;;;;;;;;;
1980;;;;;;;;;;;;;
1981;;;;;;;;;;;;;
1982;;;;;;;;;;;;;
1983;;;;;;;;;;;;;
1984;;;;;;;;;;;;;
1985;;;;;;;;;;;;;
1986;;;;;;;;;;;;;
1987;;;;;;;;;;;;;
1988;;;;;;;;;;;;;
1989;;;;;;;;;;;;;
1990;;;;;;;;;;;;;
1991;;;;;;;;;;;;;
1992;;;;;;;;;;;;;
1993;;;;;;;;;;;;;
1994;;;;;;;;;;;;;
1995;;;;;;;;;;;;;
1996;;;;;;;;;;;;;
1997;;;;;;;;;;;;;
1998;;;;;;;;;;;;;
1999;;;;;;;;;;;;;
2000;;;;;;;;;;;;;
2001;;;;;;;;;;;;;
2002;;;;;;;;;;;;;
2003;;;;;;;;;;;;;
2004;;;;;;;;;;;;;
2005;;;;;;;;;;;;;
2006;;;;;;;;;;;;;
2007;;;;;;;;;;;;;
2008;;;;;;;;;;;;;
2009;;;;;;;;;;;;;
2010;;;;;;;;;;;;;
2011;;;;;;;;;;;;;
2012;;;;;;;;;;;;;
2013;;;;;;;;;;;;;
2014;;;;;;;;;;;;;
2015;;;;;;;;;;;;;
2016;;;;;;;;;;;;;
2017;;;;;;;;;;;;;
2018;;;;;;;;;;;;;
2019;;;;;;;;;;;;;
2020;;;;;;;;;;;;;
2021;;;;;;;;;;;;;
2022;;;;;;;;;;;;;
2023;;;;;;;;;;;;;
2024;;;;;;;;;;;;;
2025;;;;;;;;;;;;;
2026;;;;;;;;;;;;;
2027;;;;;;;;;;;;;
2028;;;;;;;;;;;;;
2029;;;;;;;;;;;;;
2030;;;;;;;;;;;;;
2031;;;;;;;;;;;;;
2032;;;;;;;;;;;;;
2033;;;;;;;;;;;;;
2034;;;;;;;;;;;;;
2035;;;;;;;;;;;;;
2036;;;;;;;;;;;;;
2037;;;;;;;;;;;;;
2038;;;;;;;;;;;;;
2039;;;;;;;;;;;;;
2040;;;;;;;;;;;;;
2041;;;;;;;;;;;;;
2042;;;;;;;;;;;;;
2043;;;;;;;;;;;;;
2044;;;;;;;;;;;;;
2045;;;;;;;;;;;;;
2046;;;;;;;;;;;;;
2047;;;;;;;;;;;;;
2048;;;;;;;;;;;;;
2049;;;;;;;;;;;;;
2050;;;;;;;;;;;;;
2051;;;;;;;;;;;;;
2052;;;;;;;;;;;;;
2053;;;;;;;;;;;;;
2054;;;;;;;;;;;;;
2055;;;;;;;;;;;;;
2056;;;;;;;;;;;;;
2057;;;;;;;;;;;;;
2058;;;;;;;;;;;;;
2059;;;;;;;;;;;;;
2060;;;;;;;;;;;;;
2061;;;;;;;;;;;;;
2062;;;;;;;;;;;;;
2063;;;;;;;;;;;;;
2064;;;;;;;;;;;;;
2065;;;;;;;;;;;;;
2066;;;;;;;;;;;;;
2067;;;;;;;;;;;;;
2068;;;;;;;;;;;;;
2069;;;;;;;;;;;;;
2070;;;;;;;;;;;;;
2071;;;;;;;;;;;;;
2072;;;;;;;;;;;;;
2073;;;;;;;;;;;;;
2074;;;;;;;;;;;;;
2075;;;;;;;;;;;;;
2076;;;;;;;;;;;;;
2077;;;;;;;;;;;;;
2078;;;;;;;;;;;;;
2079;;;;;;;;;;;;;
2080;;;;;;;;;;;;;
2081;;;;;;;;;;;;;
2082;;;;;;;;;;;;;
2083;;;;;;;;;;;;;
2084;;;;;;;;;;;;;
2085;;;;;;;;;;;;;
2086;;;;;;;;;;;;;
2087;;;;;;;;;;;;;
2088;;;;;;;;;;;;;
2089;;;;;;;;;;;;;
2090;;;;;;;;;;;;;
2091;;;;;;;;;;;;;
2092;;;;;;;;;;;;;
2093;;;;;;;;;;;;;
2094;;;;;;;;;;;;;
2095;;;;;;;;;;;;;
2096;;;;;;;;;;;;;
2097;;;;;;;;;;;;;
2098;;;;;;;;;;;;;
2099;;;;;;;;;;;;;
2100;;;;;;;;;;;;;
2101;;;;;;;;;;;;;
2102;;;;;;;;;;;;;
2103;;;;;;;;;;;;;
2104;;;;;;;;;;;;;
2105;;;;;;;;;;;;;
2106;;;;;;;;;;;;;
2107;;;;;;;;;;;;;
2108;;;;;;;;;;;;;
2109;;;;;;;;;;;;;
2110;;;;;;;;;;;;;
2111;;;;;;;;;;;;;
2112;;;;;;;;;;;;;
2113;;;;;;;;;;;;;
2114;;;;;;;;;;;;;
2115;;;;;;;;;;;;;
2116;;;;;;;;;;;;;
2117;;;;;;;;;;;;;
2118;;;;;;;;;;;;;
2119;;;;;;;;;;;;;
2120;;;;;;;;;;;;;
2121;;;;;;;;;;;;;
2122;;;;;;;;;;;;;
2123;;;;;;;;;;;;;
2124;;;;;;;;;;;;;
2125;;;;;;;;;;;;;
2126;;;;;;;;;;;;;
2127;;;;;;;;;;;;;
2128;;;;;;;;;;;;;
2129;;;;;;;;;;;;;
2130;;;;;;;;;;;;;
2131;;;;;;;;;;;;;
2132;;;;;;;;;;;;;
2133;;;;;;;;;;;;;
2134;;;;;;;;;;;;;
2135;;;;;;;;;;;;;
2136;;;;;;;;;;;;;
2137;;;;;;;;;;;;;
2138;;;;;;;;;;;;;
2139;;;;;;;;;;;;;
2140;;;;;;;;;;;;;
2141;;;;;;;;;;;;;
2142;;;;;;;;;;;;;
2143;;;;;;;;;;;;;
2144;;;;;;;;;;;;;
2145;;;;;;;;;;;;;
2146;;;;;;;;;;;;;
2147;;;;;;;;;;;;;
2148;;;;;;;;;;;;;
2149;;;;;;;;;;;;;
2150;;;;;;;;;;;;;
2151;;;;;;;;;;;;;
2152;;;;;;;;;;;;;
2153;;;;;;;;;;;;;
2154;;;;;;;;;;;;;
2155;;;;;;;;;;;;;
2156;;;;;;;;;;;;;
2157;;;;;;;;;;;;;
2158;;;;;;;;;;;;;
2159;;;;;;;;;;;;;
2160;;;;;;;;;;;;;
2161;;;;;;;;;;;;;
2162;;;;;;;;;;;;;
2163;;;;;;;;;;;;;
2164;;;;;;;;;;;;;
2165;;;;;;;;;;;;;
2166;;;;;;;;;;;;;
2167;;;;;;;;;;;;;
2168;;;;;;;;;;;;;
2169;;;;;;;;;;;;;
2170;;;;;;;;;;;;;
2171;;;;;;;;;;;;;
2172;;;;;;;;;;;;;
2173;;;;;;;;;;;;;
2174;;;;;;;;;;;;;
2175;;;;;;;;;;;;;
2176;;;;;;;;;;;;;
2177;;;;;;;;;;;;;
2178;;;;;;;;;;;;;
2179;;;;;;;;;;;;;
2180;;;;;;;;;;;;;
2181;;;;;;;;;;;;;
2182;;;;;;;;;;;;;
2183;;;;;;;;;;;;;
2184;;;;;;;;;;;;;
2185;;;;;;;;;;;;;
2186;;;;;;;;;;;;;
2187;;;;;;;;;;;;;
2188;;;;;;;;;;;;;
2189;;;;;;;;;;;;;
2190;;;;;;;;;;;;;
2191;;;;;;;;;;;;;
2192;;;;;;;;;;;;;
2193;;;;;;;;;;;;;
2194;;;;;;;;;;;;;
2195;;;;;;;;;;;;;
2196;;;;;;;;;;;;;
2197;;;;;;;;;;;;;
2198;;;;;;;;;;;;;
2199;;;;;;;;;;;;;
2200;;;;;;;;;;;;;
2201;;;;;;;;;;;;;
2202;;;;;;;;;;;;;
2203;;;;;;;;;;;;;
2204;;;;;;;;;;;;;
2205;;;;;;;;;;;;;
2206;;;;;;;;;;;;;
2207;;;;;;;;;;;;;
2208;;;;;;;;;;;;;
2209;;;;;;;;;;;;;
2210;;;;;;;;;;;;;
2211;;;;;;;;;;;;;
2212;;;;;;;;;;;;;
2213;;;;;;;;;;;;;
2214;;;;;;;;;;;;;
2215;;;;;;;;;;;;;
2216;;;;;;;;;;;;;
2217;;;;;;;;;;;;;
2218;;;;;;;;;;;;;
2219;;;;;;;;;;;;;
2220;;;;;;;;;;;;;
2221;;;;;;;;;;;;;
2222;;;;;;;;;;;;;
2223;;;;;;;;;;;;;
2224;;;;;;;;;;;;;
2225;;;;;;;;;;;;;
2226;;;;;;;;;;;;;
2227;;;;;;;;;;;;;
2228;;;;;;;;;;;;;
2229;;;;;;;;;;;;;
2230;;;;;;;;;;;;;
2231;;;;;;;;;;;;;
2232;;;;;;;;;;;;;
2233;;;;;;;;;;;;;
2234;;;;;;;;;;;;;
2235;;;;;;;;;;;;;
2236;;;;;;;;;;;;;
2237;;;;;;;;;;;;;
2238;;;;;;;;;;;;;
2239;;;;;;;;;;;;;
2240;;;;;;;;;;;;;
2241;;;;;;;;;;;;;
2242;;;;;;;;;;;;;
2243;;;;;;;;;;;;;
2244;;;;;;;;;;;;;
2245;;;;;;;;;;;;;
2246;;;;;;;;;;;;;
2247;;;;;;;;;;;;;
2248;;;;;;;;;;;;;
2249;;;;;;;;;;;;;
2250;;;;;;;;;;;;;
2251;;;;;;;;;;;;;
2252;;;;;;;;;;;;;
2253;;;;;;;;;;;;;
2254;;;;;;;;;;;;;
2255;;;;;;;;;;;;;
2256;;;;;;;;;;;;;
2257;;;;;;;;;;;;;
2258;;;;;;;;;;;;;
2259;;;;;;;;;;;;;
2260;;;;;;;;;;;;;
2261;;;;;;;;;;;;;
2262;;;;;;;;;;;;;
2263;;;;;;;;;;;;;
2264;;;;;;;;;;;;;
2265;;;;;;;;;;;;;
2266;;;;;;;;;;;;;
2267;;;;;;;;;;;;;
2268;;;;;;;;;;;;;
2269;;;;;;;;;;;;;
2270;;;;;;;;;;;;;
2271;;;;;;;;;;;;;
2272;;;;;;;;;;;;;
2273;;;;;;;;;;;;;
2274;;;;;;;;;;;;;
2275;;;;;;;;;;;;;
2276;;;;;;;;;;;;;
2277;;;;;;;;;;;;;
2278;;;;;;;;;;;;;
2279;;;;;;;;;;;;;
2280;;;;;;;;;;;;;
2281;;;;;;;;;;;;;
2282;;;;;;;;;;;;;
2283;;;;;;;;;;;;;
2284;;;;;;;;;;;;;
2285;;;;;;;;;;;;;
2286;;;;;;;;;;;;;
2287;;;;;;;;;;;;;
2288;;;;;;;;;;;;;
2289;;;;;;;;;;;;;
2290;;;;;;;;;;;;;
2291;;;;;;;;;;;;;
2292;;;;;;;;;;;;;
2293;;;;;;;;;;;;;
2294;;;;;;;;;;;;;
2295;;;;;;;;;;;;;
2296;;;;;;;;;;;;;
2297;;;;;;;;;;;;;
2298;;;;;;;;;;;;;
2299;;;;;;;;;;;;;
2300;;;;;;;;;;;;;
2301;;;;;;;;;;;;;
2302;;;;;;;;;;;;;
2303;;;;;;;;;;;;;
2304;;;;;;;;;;;;;
2305;;;;;;;;;;;;;
2306;;;;;;;;;;;;;
2307;;;;;;;;;;;;;
2308;;;;;;;;;;;;;
2309;;;;;;;;;;;;;
2310;;;;;;;;;;;;;
2311;;;;;;;;;;;;;
2312;;;;;;;;;;;;;
2313;;;;;;;;;;;;;
2314;;;;;;;;;;;;;
2315;;;;;;;;;;;;;
2316;;;;;;;;;;;;;
2317;;;;;;;;;;;;;
2318;;;;;;;;;;;;;
2319;;;;;;;;;;;;;
2320;;;;;;;;;;;;;
2321;;;;;;;;;;;;;
2322;;;;;;;;;;;;;
2323;;;;;;;;;;;;;
2324;;;;;;;;;;;;;
2325;;;;;;;;;;;;;
2326;;;;;;;;;;;;;
2327;;;;;;;;;;;;;
2328;;;;;;;;;;;;;
2329;;;;;;;;;;;;;
2330;;;;;;;;;;;;;
2331;;;;;;;;;;;;;
2332;;;;;;;;;;;;;
2333;;;;;;;;;;;;;
2334;;;;;;;;;;;;;
2335;;;;;;;;;;;;;
2336;;;;;;;;;;;;;
2337;;;;;;;;;;;;;
2338;;;;;;;;;;;;;
2339;;;;;;;;;;;;;
2340;;;;;;;;;;;;;
2341;;;;;;;;;;;;;
2342;;;;;;;;;;;;;
2343;;;;;;;;;;;;;
2344;;;;;;;;;;;;;
2345;;;;;;;;;;;;;
2346;;;;;;;;;;;;;
2347;;;;;;;;;;;;;
2348;;;;;;;;;;;;;
2349;;;;;;;;;;;;;
2350;;;;;;;;;;;;;
2351;;;;;;;;;;;;;
2352;;;;;;;;;;;;;
2353;;;;;;;;;;;;;
2354;;;;;;;;;;;;;
2355;;;;;;;;;;;;;
2356;;;;;;;;;;;;;
2357;;;;;;;;;;;;;
2358;;;;;;;;;;;;;
2359;;;;;;;;;;;;;
2360;;;;;;;;;;;;;
2361;;;;;;;;;;;;;
2362;;;;;;;;;;;;;
2363;;;;;;;;;;;;;
2364;;;;;;;;;;;;;
2365;;;;;;;;;;;;;
2366;;;;;;;;;;;;;
2367;;;;;;;;;;;;;
2368;;;;;;;;;;;;;
2369;;;;;;;;;;;;;
2370;;;;;;;;;;;;;
2371;;;;;;;;;;;;;
2372;;;;;;;;;;;;;
2373;;;;;;;;;;;;;
2374;;;;;;;;;;;;;
2375;;;;;;;;;;;;;
2376;;;;;;;;;;;;;
2377;;;;;;;;;;;;;
2378;;;;;;;;;;;;;
2379;;;;;;;;;;;;;
2380;;;;;;;;;;;;;
2381;;;;;;;;;;;;;
2382;;;;;;;;;;;;;
2383;;;;;;;;;;;;;
2384;;;;;;;;;;;;;
2385;;;;;;;;;;;;;
2386;;;;;;;;;;;;;
2387;;;;;;;;;;;;;
2388;;;;;;;;;;;;;
2389;;;;;;;;;;;;;
2390;;;;;;;;;;;;;
2391;;;;;;;;;;;;;
2392;;;;;;;;;;;;;
2393;;;;;;;;;;;;;
2394;;;;;;;;;;;;;
2395;;;;;;;;;;;;;
2396;;;;;;;;;;;;;
2397;;;;;;;;;;;;;
2398;;;;;;;;;;;;;
2399;;;;;;;;;;;;;
2400;;;;;;;;;;;;;
2401;;;;;;;;;;;;;
2402;;;;;;;;;;;;;
2403;;;;;;;;;;;;;
2404;;;;;;;;;;;;;
2405;;;;;;;;;;;;;
2406;;;;;;;;;;;;;
2407;;;;;;;;;;;;;
2408;;;;;;;;;;;;;
2409;;;;;;;;;;;;;
2410;;;;;;;;;;;;;
2411;;;;;;;;;;;;;
2412;;;;;;;;;;;;;
2413;;;;;;;;;;;;;
2414;;;;;;;;;;;;;
2415;;;;;;;;;;;;;
2416;;;;;;;;;;;;;
2417;;;;;;;;;;;;;
2418;;;;;;;;;;;;;
2419;;;;;;;;;;;;;
2420;;;;;;;;;;;;;
2421;;;;;;;;;;;;;
2422;;;;;;;;;;;;;
2423;;;;;;;;;;;;;
2424;;;;;;;;;;;;;
2425;;;;;;;;;;;;;
2426;;;;;;;;;;;;;
2427;;;;;;;;;;;;;
2428;;;;;;;;;;;;;
2429;;;;;;;;;;;;;
2430;;;;;;;;;;;;;
2431;;;;;;;;;;;;;
2432;;;;;;;;;;;;;
2433;;;;;;;;;;;;;
2434;;;;;;;;;;;;;
2435;;;;;;;;;;;;;
2436;;;;;;;;;;;;;
2437;;;;;;;;;;;;;
2438;;;;;;;;;;;;;
2439;;;;;;;;;;;;;
2440;;;;;;;;;;;;;
2441;;;;;;;;;;;;;
2442;;;;;;;;;;;;;
2443;;;;;;;;;;;;;
2444;;;;;;;;;;;;;
2445;;;;;;;;;;;;;
2446;;;;;;;;;;;;;
2447;;;;;;;;;;;;;
2448;;;;;;;;;;;;;
2449;;;;;;;;;;;;;
2450;;;;;;;;;;;;;
2451;;;;;;;;;;;;;
2452;;;;;;;;;;;;;
2453;;;;;;;;;;;;;
2454;;;;;;;;;;;;;
2455;;;;;;;;;;;;;
2456;;;;;;;;;;;;;
2457;;;;;;;;;;;;;
2458;;;;;;;;;;;;;
2459;;;;;;;;;;;;;
2460;;;;;;;;;;;;;
2461;;;;;;;;;;;;;
2462;;;;;;;;;;;;;
2463;;;;;;;;;;;;;
2464;;;;;;;;;;;;;
2465;;;;;;;;;;;;;
2466;;;;;;;;;;;;;
2467;;;;;;;;;;;;;
2468;;;;;;;;;;;;;
2469;;;;;;;;;;;;;
2470;;;;;;;;;;;;;
2471;;;;;;;;;;;;;
2472;;;;;;;;;;;;;
2473;;;;;;;;;;;;;
2474;;;;;;;;;;;;;
2475;;;;;;;;;;;;;
2476;;;;;;;;;;;;;
2477;;;;;;;;;;;;;
2478;;;;;;;;;;;;;
2479;;;;;;;;;;;;;
2480;;;;;;;;;;;;;
2481;;;;;;;;;;;;;
2482;;;;;;;;;;;;;
2483;;;;;;;;;;;;;
2484;;;;;;;;;;;;;
2485;;;;;;;;;;;;;
2486;;;;;;;;;;;;;
2487;;;;;;;;;;;;;
2488;;;;;;;;;;;;;
2489;;;;;;;;;;;;;
2490;;;;;;;;;;;;;
2491;;;;;;;;;;;;;
2492;;;;;;;;;;;;;
2493;;;;;;;;;;;;;
2494;;;;;;;;;;;;;
2495;;;;;;;;;;;;;
